400,9.06E-03,4.11E-03,0.00E+00,8.10E-02,0.00E+00,0.00E+00
401,1.33E-02,7.25E-03,0.00E+00,1.06E-01,0.00E+00,0.00E+00
402,1.51E-02,8.52E-03,0.00E+00,1.17E-01,0.00E+00,0.00E+00
403,1.59E-02,8.94E-03,0.00E+00,1.17E-01,0.00E+00,0.00E+00
404,1.78E-02,9.63E-03,0.00E+00,1.08E-01,0.00E+00,0.00E+00
405,1.96E-02,1.01E-02,0.00E+00,9.68E-02,0.00E+00,0.00E+00
406,2.04E-02,9.62E-03,0.00E+00,9.08E-02,0.00E+00,0.00E+00
407,2.14E-02,9.43E-03,0.00E+00,9.00E-02,0.00E+00,0.00E+00
408,2.39E-02,1.05E-02,0.00E+00,9.78E-02,0.00E+00,0.00E+00
409,2.50E-02,1.17E-02,0.00E+00,1.07E-01,0.00E+00,0.00E+00
410,2.26E-02,1.24E-02,0.00E+00,1.12E-01,0.00E+00,0.00E+00
411,2.14E-02,1.33E-02,0.00E+00,1.13E-01,0.00E+00,0.00E+00
412,2.13E-02,1.48E-02,0.00E+00,1.08E-01,0.00E+00,0.00E+00
413,2.11E-02,1.62E-02,0.00E+00,1.02E-01,0.00E+00,0.00E+00
414,2.09E-02,1.72E-02,0.00E+00,9.54E-02,0.00E+00,0.00E+00
415,2.07E-02,1.78E-02,0.00E+00,9.08E-02,0.00E+00,0.00E+00
416,2.05E-02,1.80E-02,0.00E+00,8.94E-02,0.00E+00,0.00E+00
417,2.04E-02,1.63E-02,0.00E+00,8.81E-02,0.00E+00,0.00E+00
418,2.02E-02,1.34E-02,0.00E+00,8.65E-02,0.00E+00,0.00E+00
419,2.00E-02,1.37E-02,0.00E+00,9.09E-02,0.00E+00,0.00E+00
420,1.98E-02,1.76E-02,0.00E+00,1.00E-01,0.00E+00,0.00E+00
421,2.02E-02,2.14E-02,0.00E+00,1.06E-01,0.00E+00,0.00E+00
422,2.52E-02,2.44E-02,0.00E+00,1.08E-01,0.00E+00,0.00E+00
423,2.67E-02,2.62E-02,0.00E+00,1.09E-01,0.00E+00,0.00E+00
424,2.56E-02,2.71E-02,0.00E+00,1.09E-01,0.00E+00,0.00E+00
425,2.66E-02,2.73E-02,0.00E+00,1.07E-01,0.00E+00,0.00E+00
426,2.85E-02,2.74E-02,0.00E+00,1.04E-01,0.00E+00,0.00E+00
427,2.82E-02,2.82E-02,0.00E+00,1.03E-01,0.00E+00,0.00E+00
428,2.72E-02,2.96E-02,0.00E+00,1.04E-01,0.00E+00,0.00E+00
429,2.86E-02,3.14E-02,0.00E+00,1.03E-01,0.00E+00,0.00E+00
430,3.01E-02,3.34E-02,0.00E+00,1.01E-01,0.00E+00,0.00E+00
431,2.80E-02,3.53E-02,0.00E+00,9.95E-02,0.00E+00,0.00E+00
432,2.58E-02,3.66E-02,0.00E+00,9.86E-02,0.00E+00,0.00E+00
433,2.78E-02,3.65E-02,0.00E+00,9.86E-02,0.00E+00,0.00E+00
434,2.96E-02,3.61E-02,0.00E+00,9.79E-02,0.00E+00,0.00E+00
435,2.84E-02,3.61E-02,0.00E+00,9.46E-02,0.00E+00,0.00E+00
436,2.74E-02,3.67E-02,0.00E+00,9.16E-02,0.00E+00,0.00E+00
437,2.88E-02,3.82E-02,0.00E+00,9.02E-02,0.00E+00,0.00E+00
438,2.98E-02,3.97E-02,0.00E+00,9.09E-02,0.00E+00,0.00E+00
439,2.93E-02,4.08E-02,0.00E+00,9.43E-02,0.00E+00,0.00E+00
440,2.93E-02,4.22E-02,0.00E+00,9.68E-02,0.00E+00,0.00E+00
441,3.03E-02,4.43E-02,0.00E+00,9.63E-02,0.00E+00,0.00E+00
442,3.08E-02,4.68E-02,0.00E+00,9.28E-02,0.00E+00,0.00E+00
443,3.02E-02,4.93E-02,0.00E+00,8.67E-02,0.00E+00,0.00E+00
444,3.04E-02,5.11E-02,0.00E+00,8.22E-02,0.00E+00,0.00E+00
445,3.14E-02,5.21E-02,0.00E+00,8.09E-02,0.00E+00,0.00E+00
446,3.12E-02,5.35E-02,0.00E+00,8.26E-02,0.00E+00,0.00E+00
447,2.98E-02,5.55E-02,0.00E+00,8.67E-02,0.00E+00,0.00E+00
448,2.95E-02,5.79E-02,0.00E+00,9.02E-02,0.00E+00,0.00E+00
449,3.03E-02,6.04E-02,0.00E+00,9.27E-02,0.00E+00,0.00E+00
450,3.05E-02,6.24E-02,0.00E+00,9.39E-02,0.00E+00,0.00E+00
451,3.05E-02,6.40E-02,0.00E+00,9.43E-02,0.00E+00,0.00E+00
452,3.11E-02,6.59E-02,0.00E+00,9.54E-02,0.00E+00,0.00E+00
453,3.18E-02,6.80E-02,0.00E+00,9.62E-02,0.00E+00,0.00E+00
454,3.14E-02,6.98E-02,0.00E+00,9.45E-02,0.00E+00,0.00E+00
455,3.06E-02,7.16E-02,0.00E+00,9.08E-02,0.00E+00,0.00E+00
456,3.13E-02,7.39E-02,0.00E+00,8.45E-02,0.00E+00,0.00E+00
457,3.25E-02,7.69E-02,0.00E+00,7.89E-02,0.00E+00,0.00E+00
458,3.26E-02,8.10E-02,0.00E+00,7.82E-02,0.00E+00,0.00E+00
459,3.28E-02,8.51E-02,0.00E+00,8.08E-02,0.00E+00,0.00E+00
460,3.39E-02,8.80E-02,0.00E+00,8.68E-02,0.00E+00,0.00E+00
461,3.47E-02,9.04E-02,0.00E+00,9.23E-02,0.00E+00,0.00E+00
462,3.37E-02,9.30E-02,0.00E+00,9.37E-02,0.00E+00,0.00E+00
463,3.29E-02,9.55E-02,0.00E+00,9.36E-02,0.00E+00,0.00E+00
464,3.34E-02,9.76E-02,0.00E+00,9.32E-02,0.00E+00,0.00E+00
465,3.41E-02,9.97E-02,0.00E+00,9.32E-02,0.00E+00,0.00E+00
466,3.46E-02,1.02E-01,0.00E+00,9.46E-02,0.00E+00,0.00E+00
467,3.52E-02,1.04E-01,0.00E+00,9.54E-02,0.00E+00,0.00E+00
468,3.59E-02,1.06E-01,0.00E+00,9.48E-02,0.00E+00,0.00E+00
469,3.59E-02,1.08E-01,0.00E+00,9.33E-02,0.00E+00,0.00E+00
470,3.51E-02,1.10E-01,0.00E+00,9.12E-02,0.00E+00,0.00E+00
471,3.45E-02,1.12E-01,0.00E+00,8.82E-02,0.00E+00,0.00E+00
472,3.44E-02,1.14E-01,0.00E+00,8.52E-02,0.00E+00,0.00E+00
473,3.45E-02,1.16E-01,0.00E+00,8.48E-02,0.00E+00,0.00E+00
474,3.47E-02,1.18E-01,0.00E+00,8.70E-02,0.00E+00,0.00E+00
475,3.55E-02,1.19E-01,0.00E+00,9.03E-02,0.00E+00,0.00E+00
476,3.64E-02,1.19E-01,0.00E+00,9.36E-02,0.00E+00,0.00E+00
477,3.66E-02,1.19E-01,0.00E+00,9.55E-02,0.00E+00,0.00E+00
478,3.64E-02,1.18E-01,0.00E+00,9.59E-02,0.00E+00,0.00E+00
479,3.64E-02,1.18E-01,0.00E+00,9.55E-02,0.00E+00,0.00E+00
480,3.67E-02,1.18E-01,0.00E+00,9.46E-02,0.00E+00,0.00E+00
481,3.68E-02,1.19E-01,0.00E+00,9.33E-02,0.00E+00,0.00E+00
482,3.70E-02,1.19E-01,0.00E+00,9.22E-02,0.00E+00,0.00E+00
483,3.77E-02,1.20E-01,0.00E+00,9.24E-02,0.00E+00,0.00E+00
484,3.84E-02,1.20E-01,0.00E+00,9.37E-02,0.00E+00,0.00E+00
485,3.85E-02,1.19E-01,0.00E+00,9.65E-02,0.00E+00,0.00E+00
486,3.82E-02,1.18E-01,0.00E+00,9.93E-02,0.00E+00,0.00E+00
487,3.80E-02,1.17E-01,0.00E+00,1.00E-01,0.00E+00,0.00E+00
488,3.78E-02,1.16E-01,0.00E+00,1.00E-01,0.00E+00,0.00E+00
489,3.78E-02,1.14E-01,0.00E+00,1.02E-01,0.00E+00,0.00E+00
490,3.80E-02,1.13E-01,0.00E+00,1.03E-01,0.00E+00,0.00E+00
491,3.85E-02,1.12E-01,0.00E+00,1.01E-01,0.00E+00,0.00E+00
492,3.88E-02,1.11E-01,0.00E+00,9.94E-02,0.00E+00,0.00E+00
493,3.88E-02,1.10E-01,0.00E+00,9.78E-02,0.00E+00,0.00E+00
494,3.89E-02,1.09E-01,0.00E+00,9.80E-02,0.00E+00,0.00E+00
495,3.93E-02,1.08E-01,0.00E+00,1.01E-01,0.00E+00,0.00E+00
496,3.96E-02,1.06E-01,0.00E+00,1.05E-01,0.00E+00,0.00E+00
497,3.99E-02,1.05E-01,0.00E+00,1.09E-01,0.00E+00,0.00E+00
498,4.01E-02,1.03E-01,0.00E+00,1.10E-01,0.00E+00,0.00E+00
499,4.04E-02,1.01E-01,0.00E+00,1.07E-01,0.00E+00,0.00E+00
500,4.10E-02,9.91E-02,0.00E+00,1.06E-01,0.00E+00,0.00E+00
501,4.10E-02,9.71E-02,0.00E+00,1.08E-01,0.00E+00,0.00E+00
502,4.09E-02,9.52E-02,0.00E+00,1.10E-01,0.00E+00,0.00E+00
503,4.09E-02,9.35E-02,0.00E+00,1.11E-01,0.00E+00,0.00E+00
504,4.09E-02,9.16E-02,0.00E+00,1.07E-01,0.00E+00,0.00E+00
505,4.09E-02,8.98E-02,0.00E+00,1.02E-01,0.00E+00,0.00E+00
506,4.08E-02,8.92E-02,0.00E+00,1.00E-01,0.00E+00,0.00E+00
507,4.08E-02,8.90E-02,0.00E+00,1.02E-01,0.00E+00,0.00E+00
508,4.08E-02,8.73E-02,0.00E+00,1.07E-01,0.00E+00,0.00E+00
509,4.08E-02,8.49E-02,0.00E+00,1.13E-01,0.00E+00,0.00E+00
510,4.07E-02,8.29E-02,0.00E+00,1.19E-01,0.00E+00,0.00E+00
511,4.19E-02,8.11E-02,0.00E+00,1.22E-01,0.00E+00,0.00E+00
512,4.33E-02,7.99E-02,0.00E+00,1.19E-01,0.00E+00,0.00E+00
513,4.51E-02,7.88E-02,0.00E+00,1.16E-01,0.00E+00,0.00E+00
514,4.66E-02,7.76E-02,0.00E+00,1.14E-01,0.00E+00,0.00E+00
515,4.79E-02,7.63E-02,0.00E+00,1.14E-01,0.00E+00,0.00E+00
516,4.88E-02,7.46E-02,0.00E+00,1.14E-01,0.00E+00,0.00E+00
517,4.98E-02,7.29E-02,0.00E+00,1.15E-01,0.00E+00,0.00E+00
518,5.11E-02,7.12E-02,0.00E+00,1.15E-01,0.00E+00,0.00E+00
519,5.18E-02,6.96E-02,0.00E+00,1.17E-01,0.00E+00,0.00E+00
520,5.14E-02,6.80E-02,0.00E+00,1.21E-01,0.00E+00,0.00E+00
521,5.16E-02,6.66E-02,0.00E+00,1.25E-01,0.00E+00,0.00E+00
522,5.30E-02,6.52E-02,0.00E+00,1.28E-01,0.00E+00,0.00E+00
523,5.41E-02,6.39E-02,0.00E+00,1.30E-01,0.00E+00,0.00E+00
524,5.45E-02,6.25E-02,0.00E+00,1.30E-01,0.00E+00,0.00E+00
525,5.51E-02,6.10E-02,0.00E+00,1.31E-01,0.00E+00,0.00E+00
526,5.61E-02,5.93E-02,0.00E+00,1.32E-01,0.00E+00,0.00E+00
527,5.66E-02,5.78E-02,0.00E+00,1.34E-01,0.00E+00,0.00E+00
528,5.67E-02,5.64E-02,0.00E+00,1.38E-01,0.00E+00,0.00E+00
529,5.74E-02,5.48E-02,0.00E+00,1.42E-01,0.00E+00,0.00E+00
530,5.85E-02,5.33E-02,0.00E+00,1.45E-01,0.00E+00,0.00E+00
531,5.91E-02,5.18E-02,0.00E+00,1.46E-01,0.00E+00,0.00E+00
532,5.95E-02,5.05E-02,0.00E+00,1.47E-01,0.00E+00,0.00E+00
533,6.04E-02,4.95E-02,0.00E+00,1.48E-01,0.00E+00,0.00E+00
534,6.16E-02,4.85E-02,0.00E+00,1.48E-01,0.00E+00,0.00E+00
535,6.23E-02,4.74E-02,0.00E+00,1.50E-01,0.00E+00,0.00E+00
536,6.29E-02,4.61E-02,0.00E+00,1.52E-01,0.00E+00,0.00E+00
537,6.42E-02,4.51E-02,0.00E+00,1.54E-01,0.00E+00,0.00E+00
538,6.54E-02,4.40E-02,0.00E+00,1.56E-01,0.00E+00,0.00E+00
539,6.59E-02,4.28E-02,0.00E+00,1.58E-01,0.00E+00,0.00E+00
540,6.64E-02,4.16E-02,0.00E+00,1.61E-01,0.00E+00,0.00E+00
541,6.74E-02,4.03E-02,0.00E+00,1.64E-01,0.00E+00,0.00E+00
542,6.83E-02,3.91E-02,0.00E+00,1.67E-01,0.00E+00,0.00E+00
543,6.87E-02,3.82E-02,0.00E+00,1.70E-01,0.00E+00,0.00E+00
544,6.92E-02,3.72E-02,0.00E+00,1.72E-01,0.00E+00,0.00E+00
545,7.03E-02,3.62E-02,0.00E+00,1.74E-01,0.00E+00,0.00E+00
546,7.11E-02,3.50E-02,0.00E+00,1.76E-01,0.00E+00,0.00E+00
547,7.14E-02,3.37E-02,0.00E+00,1.77E-01,0.00E+00,0.00E+00
548,7.15E-02,3.28E-02,0.00E+00,1.77E-01,0.00E+00,0.00E+00
549,7.16E-02,3.22E-02,0.00E+00,1.76E-01,0.00E+00,0.00E+00
550,7.13E-02,3.22E-02,0.00E+00,1.76E-01,0.00E+00,0.00E+00
551,7.04E-02,3.28E-02,0.00E+00,1.76E-01,0.00E+00,0.00E+00
552,7.00E-02,3.34E-02,0.00E+00,1.76E-01,0.00E+00,0.00E+00
553,7.01E-02,3.40E-02,0.00E+00,1.76E-01,0.00E+00,0.00E+00
554,7.00E-02,3.41E-02,0.00E+00,1.75E-01,0.00E+00,0.00E+00
555,6.96E-02,3.39E-02,0.00E+00,1.74E-01,0.00E+00,0.00E+00
556,6.95E-02,3.37E-02,0.00E+00,1.74E-01,0.00E+00,0.00E+00
557,6.97E-02,3.37E-02,0.00E+00,1.75E-01,0.00E+00,0.00E+00
558,6.97E-02,3.39E-02,0.00E+00,1.75E-01,0.00E+00,0.00E+00
559,6.95E-02,3.42E-02,0.00E+00,1.76E-01,0.00E+00,0.00E+00
560,6.96E-02,3.45E-02,0.00E+00,1.76E-01,0.00E+00,0.00E+00
561,6.98E-02,3.47E-02,0.00E+00,1.75E-01,0.00E+00,0.00E+00
562,6.98E-02,3.49E-02,0.00E+00,1.75E-01,0.00E+00,0.00E+00
563,6.98E-02,3.50E-02,0.00E+00,1.75E-01,0.00E+00,0.00E+00
564,7.03E-02,3.49E-02,0.00E+00,1.75E-01,0.00E+00,0.00E+00
565,7.09E-02,3.48E-02,0.00E+00,1.75E-01,0.00E+00,0.00E+00
566,7.12E-02,3.48E-02,0.00E+00,1.75E-01,0.00E+00,0.00E+00
567,7.15E-02,3.48E-02,0.00E+00,1.75E-01,0.00E+00,0.00E+00
568,7.21E-02,3.47E-02,0.00E+00,1.75E-01,0.00E+00,0.00E+00
569,7.25E-02,3.46E-02,0.00E+00,1.76E-01,0.00E+00,0.00E+00
570,7.24E-02,3.42E-02,0.00E+00,1.77E-01,0.00E+00,0.00E+00
571,7.22E-02,3.40E-02,0.00E+00,1.78E-01,0.00E+00,0.00E+00
572,7.22E-02,3.42E-02,0.00E+00,1.78E-01,0.00E+00,0.00E+00
573,7.23E-02,3.49E-02,0.00E+00,1.78E-01,0.00E+00,0.00E+00
574,7.24E-02,3.60E-02,0.00E+00,1.77E-01,0.00E+00,0.00E+00
575,7.28E-02,3.62E-02,0.00E+00,1.77E-01,0.00E+00,0.00E+00
576,7.35E-02,3.49E-02,0.00E+00,1.78E-01,0.00E+00,0.00E+00
577,7.38E-02,3.37E-02,0.00E+00,1.79E-01,0.00E+00,0.00E+00
578,7.37E-02,3.34E-02,0.00E+00,1.79E-01,0.00E+00,0.00E+00
579,7.38E-02,3.34E-02,0.00E+00,1.79E-01,0.00E+00,0.00E+00
580,7.43E-02,3.38E-02,0.00E+00,1.79E-01,0.00E+00,0.00E+00
581,7.46E-02,3.41E-02,0.00E+00,1.81E-01,0.00E+00,0.00E+00
582,7.47E-02,3.41E-02,0.00E+00,1.83E-01,0.00E+00,0.00E+00
583,7.50E-02,3.40E-02,0.00E+00,1.83E-01,0.00E+00,0.00E+00
584,7.55E-02,3.39E-02,0.00E+00,1.83E-01,0.00E+00,0.00E+00
585,7.57E-02,3.39E-02,0.00E+00,1.84E-01,0.00E+00,0.00E+00
586,7.59E-02,3.40E-02,0.00E+00,1.85E-01,0.00E+00,0.00E+00
587,7.64E-02,3.42E-02,0.00E+00,1.86E-01,0.00E+00,0.00E+00
588,7.70E-02,3.44E-02,0.00E+00,1.87E-01,0.00E+00,0.00E+00
589,7.73E-02,3.43E-02,0.00E+00,1.88E-01,0.00E+00,0.00E+00
590,7.76E-02,3.41E-02,0.00E+00,1.88E-01,0.00E+00,0.00E+00
591,7.81E-02,3.40E-02,0.00E+00,1.87E-01,0.00E+00,0.00E+00
592,7.85E-02,3.39E-02,0.00E+00,1.87E-01,0.00E+00,0.00E+00
593,7.84E-02,3.41E-02,0.00E+00,1.88E-01,0.00E+00,0.00E+00
594,7.83E-02,3.43E-02,0.00E+00,1.89E-01,0.00E+00,0.00E+00
595,7.86E-02,3.42E-02,0.00E+00,1.91E-01,0.00E+00,0.00E+00
596,7.91E-02,3.40E-02,0.00E+00,1.93E-01,0.00E+00,0.00E+00
597,7.93E-02,3.37E-02,0.00E+00,1.94E-01,0.00E+00,0.00E+00
598,7.96E-02,3.34E-02,0.00E+00,1.94E-01,0.00E+00,0.00E+00
599,8.03E-02,3.33E-02,0.00E+00,1.94E-01,0.00E+00,0.00E+00
600,8.08E-02,3.33E-02,0.00E+00,1.95E-01,0.00E+00,0.00E+00
601,8.10E-02,3.32E-02,0.00E+00,1.96E-01,0.00E+00,0.00E+00
602,8.13E-02,3.31E-02,0.00E+00,1.98E-01,0.00E+00,0.00E+00
603,8.18E-02,3.30E-02,0.00E+00,1.98E-01,0.00E+00,0.00E+00
604,8.22E-02,3.30E-02,0.00E+00,1.99E-01,0.00E+00,0.00E+00
605,8.25E-02,3.32E-02,0.00E+00,2.00E-01,0.00E+00,0.00E+00
606,8.28E-02,3.35E-02,0.00E+00,2.00E-01,0.00E+00,0.00E+00
607,8.33E-02,3.39E-02,0.00E+00,2.00E-01,0.00E+00,0.00E+00
608,8.36E-02,3.42E-02,0.00E+00,2.00E-01,0.00E+00,0.00E+00
609,8.39E-02,3.42E-02,0.00E+00,2.01E-01,0.00E+00,0.00E+00
610,8.44E-02,3.39E-02,0.00E+00,2.00E-01,0.00E+00,0.00E+00
611,8.49E-02,3.32E-02,0.00E+00,1.99E-01,0.00E+00,0.00E+00
612,8.46E-02,3.27E-02,0.00E+00,2.01E-01,0.00E+00,0.00E+00
613,8.41E-02,3.24E-02,0.00E+00,2.06E-01,0.00E+00,0.00E+00
614,8.52E-02,3.24E-02,0.00E+00,2.11E-01,0.00E+00,0.00E+00
615,8.70E-02,3.26E-02,0.00E+00,2.15E-01,0.00E+00,0.00E+00
616,8.80E-02,3.27E-02,0.00E+00,2.13E-01,0.00E+00,0.00E+00
617,8.84E-02,3.27E-02,0.00E+00,2.09E-01,0.00E+00,0.00E+00
618,8.86E-02,3.28E-02,0.00E+00,2.09E-01,0.00E+00,0.00E+00
619,8.86E-02,3.29E-02,0.00E+00,2.12E-01,0.00E+00,0.00E+00
620,8.87E-02,3.28E-02,0.00E+00,2.11E-01,0.00E+00,0.00E+00
621,8.90E-02,3.25E-02,0.00E+00,2.11E-01,0.00E+00,0.00E+00
622,8.97E-02,3.24E-02,0.00E+00,2.12E-01,0.00E+00,0.00E+00
623,9.04E-02,3.23E-02,0.00E+00,2.13E-01,0.00E+00,0.00E+00
624,9.08E-02,3.23E-02,0.00E+00,2.14E-01,0.00E+00,0.00E+00
625,9.13E-02,3.23E-02,0.00E+00,2.15E-01,0.00E+00,0.00E+00
626,9.19E-02,3.24E-02,0.00E+00,2.15E-01,0.00E+00,0.00E+00
627,9.24E-02,3.23E-02,0.00E+00,2.15E-01,0.00E+00,0.00E+00
628,9.27E-02,3.22E-02,0.00E+00,2.15E-01,0.00E+00,0.00E+00
629,9.31E-02,3.21E-02,0.00E+00,2.16E-01,0.00E+00,0.00E+00
630,9.38E-02,3.20E-02,0.00E+00,2.18E-01,0.00E+00,0.00E+00
631,9.43E-02,3.19E-02,0.00E+00,2.20E-01,0.00E+00,0.00E+00
632,9.48E-02,3.19E-02,0.00E+00,2.20E-01,0.00E+00,0.00E+00
633,9.53E-02,3.18E-02,0.00E+00,2.20E-01,0.00E+00,0.00E+00
634,9.59E-02,3.17E-02,0.00E+00,2.21E-01,0.00E+00,0.00E+00
635,9.64E-02,3.17E-02,0.00E+00,2.23E-01,0.00E+00,0.00E+00
636,9.67E-02,3.17E-02,0.00E+00,2.24E-01,0.00E+00,0.00E+00
637,9.70E-02,3.18E-02,0.00E+00,2.27E-01,0.00E+00,0.00E+00
638,9.76E-02,3.20E-02,0.00E+00,2.29E-01,0.00E+00,0.00E+00
639,9.81E-02,3.22E-02,0.00E+00,2.31E-01,0.00E+00,0.00E+00
640,9.88E-02,3.23E-02,0.00E+00,2.33E-01,0.00E+00,0.00E+00
641,9.96E-02,3.22E-02,0.00E+00,2.35E-01,0.00E+00,0.00E+00
642,1.01E-01,3.21E-02,0.00E+00,2.38E-01,0.00E+00,0.00E+00
643,1.01E-01,3.20E-02,0.00E+00,2.40E-01,0.00E+00,0.00E+00
644,1.01E-01,3.21E-02,0.00E+00,2.41E-01,0.00E+00,0.00E+00
645,1.02E-01,3.25E-02,0.00E+00,2.42E-01,0.00E+00,0.00E+00
646,1.03E-01,3.28E-02,0.00E+00,2.44E-01,0.00E+00,0.00E+00
647,1.03E-01,3.31E-02,0.00E+00,2.47E-01,0.00E+00,0.00E+00
648,1.04E-01,3.33E-02,0.00E+00,2.51E-01,0.00E+00,0.00E+00
649,1.04E-01,3.31E-02,0.00E+00,2.54E-01,0.00E+00,0.00E+00
650,1.05E-01,3.28E-02,0.00E+00,2.56E-01,0.00E+00,0.00E+00
651,1.05E-01,3.26E-02,0.00E+00,2.56E-01,0.00E+00,0.00E+00
652,1.06E-01,3.24E-02,0.00E+00,2.55E-01,0.00E+00,0.00E+00
653,1.06E-01,3.20E-02,0.00E+00,2.54E-01,0.00E+00,0.00E+00
654,1.07E-01,3.19E-02,0.00E+00,2.54E-01,0.00E+00,0.00E+00
655,1.07E-01,3.20E-02,0.00E+00,2.53E-01,0.00E+00,0.00E+00
656,1.07E-01,3.20E-02,0.00E+00,2.54E-01,0.00E+00,0.00E+00
657,1.08E-01,3.20E-02,0.00E+00,2.57E-01,0.00E+00,0.00E+00
658,1.09E-01,3.19E-02,0.00E+00,2.59E-01,0.00E+00,0.00E+00
659,1.10E-01,3.17E-02,0.00E+00,2.59E-01,0.00E+00,0.00E+00
660,1.10E-01,3.16E-02,0.00E+00,2.60E-01,0.00E+00,0.00E+00
661,1.11E-01,3.17E-02,0.00E+00,2.60E-01,0.00E+00,0.00E+00
662,1.11E-01,3.15E-02,0.00E+00,2.60E-01,0.00E+00,0.00E+00
663,1.12E-01,3.09E-02,0.00E+00,2.59E-01,0.00E+00,0.00E+00
664,1.12E-01,3.07E-02,0.00E+00,2.58E-01,0.00E+00,0.00E+00
665,1.13E-01,3.09E-02,0.00E+00,2.60E-01,0.00E+00,0.00E+00
666,1.14E-01,3.11E-02,0.00E+00,2.66E-01,0.00E+00,0.00E+00
667,1.14E-01,3.15E-02,0.00E+00,2.68E-01,0.00E+00,0.00E+00
668,1.15E-01,3.22E-02,0.00E+00,2.70E-01,0.00E+00,0.00E+00
669,1.17E-01,3.29E-02,0.00E+00,2.72E-01,0.00E+00,0.00E+00
670,1.18E-01,3.25E-02,0.00E+00,2.74E-01,0.00E+00,0.00E+00
671,1.18E-01,3.16E-02,0.00E+00,2.76E-01,0.00E+00,0.00E+00
672,1.18E-01,3.12E-02,0.00E+00,2.79E-01,0.00E+00,0.00E+00
673,1.19E-01,3.11E-02,0.00E+00,2.77E-01,0.00E+00,0.00E+00
674,1.19E-01,3.10E-02,0.00E+00,2.77E-01,0.00E+00,0.00E+00
675,1.20E-01,3.10E-02,0.00E+00,2.78E-01,0.00E+00,0.00E+00
676,1.20E-01,3.11E-02,0.00E+00,2.80E-01,0.00E+00,0.00E+00
677,1.21E-01,3.12E-02,0.00E+00,2.82E-01,0.00E+00,0.00E+00
678,1.22E-01,3.12E-02,0.00E+00,2.83E-01,0.00E+00,0.00E+00
679,1.22E-01,3.13E-02,0.00E+00,2.83E-01,0.00E+00,0.00E+00
680,1.23E-01,3.13E-02,0.00E+00,2.84E-01,0.00E+00,0.00E+00
681,1.23E-01,3.12E-02,0.00E+00,2.86E-01,0.00E+00,0.00E+00
682,1.24E-01,3.09E-02,0.00E+00,2.87E-01,0.00E+00,0.00E+00
683,1.25E-01,3.07E-02,0.00E+00,2.88E-01,0.00E+00,0.00E+00
684,1.26E-01,3.06E-02,0.00E+00,2.89E-01,0.00E+00,0.00E+00
685,1.26E-01,3.04E-02,0.00E+00,2.89E-01,0.00E+00,0.00E+00
686,1.27E-01,3.00E-02,0.00E+00,2.89E-01,0.00E+00,0.00E+00
687,1.27E-01,2.97E-02,0.00E+00,2.89E-01,0.00E+00,0.00E+00
688,1.28E-01,2.95E-02,0.00E+00,2.90E-01,0.00E+00,0.00E+00
689,1.28E-01,2.94E-02,0.00E+00,2.90E-01,0.00E+00,0.00E+00
690,1.29E-01,2.95E-02,0.00E+00,2.91E-01,0.00E+00,0.00E+00
691,1.29E-01,2.96E-02,0.00E+00,2.91E-01,0.00E+00,0.00E+00
692,1.30E-01,2.97E-02,0.00E+00,2.92E-01,0.00E+00,0.00E+00
693,1.31E-01,2.95E-02,0.00E+00,2.92E-01,0.00E+00,0.00E+00
694,1.31E-01,2.92E-02,0.00E+00,2.92E-01,0.00E+00,0.00E+00
695,1.32E-01,2.90E-02,0.00E+00,2.92E-01,0.00E+00,0.00E+00
696,1.33E-01,2.89E-02,0.00E+00,2.92E-01,0.00E+00,0.00E+00
697,1.34E-01,2.89E-02,0.00E+00,2.93E-01,0.00E+00,0.00E+00
698,1.34E-01,2.89E-02,0.00E+00,2.94E-01,0.00E+00,0.00E+00
699,1.35E-01,2.87E-02,0.00E+00,2.94E-01,0.00E+00,0.00E+00
700,1.36E-01,2.86E-02,0.00E+00,2.94E-01,0.00E+00,0.00E+00
701,1.36E-01,2.83E-02,0.00E+00,2.93E-01,0.00E+00,0.00E+00
702,1.37E-01,2.81E-02,0.00E+00,2.93E-01,0.00E+00,0.00E+00
703,1.38E-01,2.81E-02,0.00E+00,2.93E-01,0.00E+00,0.00E+00
704,1.39E-01,2.82E-02,0.00E+00,2.93E-01,0.00E+00,0.00E+00
705,1.39E-01,2.81E-02,0.00E+00,2.93E-01,0.00E+00,0.00E+00
706,1.40E-01,2.80E-02,0.00E+00,2.94E-01,0.00E+00,0.00E+00
707,1.41E-01,2.79E-02,0.00E+00,2.94E-01,0.00E+00,0.00E+00
708,1.42E-01,2.78E-02,0.00E+00,2.95E-01,0.00E+00,0.00E+00
709,1.43E-01,2.77E-02,0.00E+00,2.97E-01,0.00E+00,0.00E+00
710,1.43E-01,2.76E-02,0.00E+00,2.98E-01,0.00E+00,0.00E+00
711,1.44E-01,2.76E-02,0.00E+00,2.99E-01,0.00E+00,0.00E+00
712,1.45E-01,2.77E-02,0.00E+00,3.01E-01,0.00E+00,0.00E+00
713,1.46E-01,2.78E-02,0.00E+00,3.02E-01,0.00E+00,0.00E+00
714,1.47E-01,2.81E-02,0.00E+00,3.03E-01,0.00E+00,0.00E+00
715,1.47E-01,2.83E-02,0.00E+00,3.03E-01,0.00E+00,0.00E+00
716,1.48E-01,2.84E-02,0.00E+00,3.04E-01,0.00E+00,0.00E+00
717,1.49E-01,2.84E-02,0.00E+00,3.05E-01,0.00E+00,0.00E+00
718,1.50E-01,2.84E-02,0.00E+00,3.08E-01,0.00E+00,0.00E+00
719,1.51E-01,2.85E-02,0.00E+00,3.13E-01,0.00E+00,0.00E+00
720,1.53E-01,2.85E-02,0.00E+00,3.15E-01,0.00E+00,0.00E+00
721,1.53E-01,2.84E-02,0.00E+00,3.15E-01,0.00E+00,0.00E+00
722,1.54E-01,2.82E-02,0.00E+00,3.14E-01,0.00E+00,0.00E+00
723,1.55E-01,2.78E-02,0.00E+00,3.13E-01,0.00E+00,0.00E+00
724,1.56E-01,2.75E-02,0.00E+00,3.13E-01,0.00E+00,0.00E+00
725,1.57E-01,2.73E-02,0.00E+00,3.13E-01,0.00E+00,0.00E+00
726,1.58E-01,2.73E-02,0.00E+00,3.13E-01,0.00E+00,0.00E+00
727,1.59E-01,2.73E-02,0.00E+00,3.14E-01,0.00E+00,0.00E+00
728,1.59E-01,2.73E-02,0.00E+00,3.15E-01,0.00E+00,0.00E+00
729,1.60E-01,2.73E-02,0.00E+00,3.16E-01,0.00E+00,0.00E+00
730,1.61E-01,2.72E-02,0.00E+00,3.17E-01,0.00E+00,0.00E+00
731,1.62E-01,2.70E-02,0.00E+00,3.18E-01,0.00E+00,0.00E+00
732,1.63E-01,2.70E-02,0.00E+00,3.19E-01,0.00E+00,0.00E+00
733,1.65E-01,2.69E-02,0.00E+00,3.20E-01,0.00E+00,0.00E+00
734,1.66E-01,2.68E-02,0.00E+00,3.22E-01,0.00E+00,0.00E+00
735,1.67E-01,2.66E-02,0.00E+00,3.23E-01,0.00E+00,0.00E+00
736,1.68E-01,2.65E-02,0.00E+00,3.24E-01,0.00E+00,0.00E+00
737,1.69E-01,2.65E-02,0.00E+00,3.24E-01,0.00E+00,0.00E+00
738,1.70E-01,2.66E-02,0.00E+00,3.25E-01,0.00E+00,0.00E+00
739,1.71E-01,2.65E-02,0.00E+00,3.26E-01,0.00E+00,0.00E+00
740,1.72E-01,2.60E-02,0.00E+00,3.27E-01,0.00E+00,0.00E+00
741,1.73E-01,2.57E-02,0.00E+00,3.28E-01,0.00E+00,0.00E+00
742,1.74E-01,2.57E-02,0.00E+00,3.29E-01,0.00E+00,0.00E+00
743,1.75E-01,2.57E-02,0.00E+00,3.29E-01,0.00E+00,0.00E+00
744,1.76E-01,2.55E-02,0.00E+00,3.30E-01,0.00E+00,0.00E+00
745,1.77E-01,2.55E-02,0.00E+00,3.30E-01,0.00E+00,0.00E+00
746,1.79E-01,2.55E-02,0.00E+00,3.31E-01,0.00E+00,0.00E+00
747,1.80E-01,2.54E-02,0.00E+00,3.31E-01,0.00E+00,0.00E+00
748,1.81E-01,2.52E-02,0.00E+00,3.32E-01,0.00E+00,0.00E+00
749,1.82E-01,2.51E-02,0.00E+00,3.32E-01,0.00E+00,0.00E+00
750,1.83E-01,2.49E-02,0.00E+00,3.33E-01,0.00E+00,0.00E+00
751,1.84E-01,2.48E-02,0.00E+00,3.33E-01,0.00E+00,0.00E+00
752,1.86E-01,2.47E-02,0.00E+00,3.33E-01,0.00E+00,0.00E+00
753,1.87E-01,2.47E-02,0.00E+00,3.33E-01,0.00E+00,0.00E+00
754,1.88E-01,2.47E-02,0.00E+00,3.34E-01,0.00E+00,0.00E+00
755,1.89E-01,2.45E-02,0.00E+00,3.35E-01,0.00E+00,0.00E+00
756,1.90E-01,2.44E-02,0.00E+00,3.37E-01,0.00E+00,0.00E+00
757,1.92E-01,2.43E-02,0.00E+00,3.38E-01,0.00E+00,0.00E+00
758,1.93E-01,2.42E-02,0.00E+00,3.39E-01,0.00E+00,0.00E+00
759,1.94E-01,2.42E-02,0.00E+00,3.39E-01,0.00E+00,0.00E+00
760,1.95E-01,2.41E-02,0.00E+00,3.39E-01,0.00E+00,0.00E+00
761,1.97E-01,2.40E-02,0.00E+00,3.40E-01,0.00E+00,0.00E+00
762,1.98E-01,2.39E-02,0.00E+00,3.41E-01,0.00E+00,0.00E+00
763,1.99E-01,2.37E-02,0.00E+00,3.42E-01,0.00E+00,0.00E+00
764,2.00E-01,2.36E-02,0.00E+00,3.42E-01,0.00E+00,0.00E+00
765,2.01E-01,2.33E-02,0.00E+00,3.42E-01,0.00E+00,0.00E+00
766,2.03E-01,2.32E-02,0.00E+00,3.41E-01,0.00E+00,0.00E+00
767,2.04E-01,2.30E-02,0.00E+00,3.41E-01,0.00E+00,0.00E+00
768,2.05E-01,2.31E-02,0.00E+00,3.41E-01,0.00E+00,0.00E+00
769,2.06E-01,2.32E-02,0.00E+00,3.41E-01,0.00E+00,0.00E+00
770,2.08E-01,2.31E-02,0.00E+00,3.41E-01,0.00E+00,0.00E+00
771,2.09E-01,2.29E-02,0.00E+00,3.40E-01,0.00E+00,0.00E+00
772,2.10E-01,2.28E-02,0.00E+00,3.39E-01,0.00E+00,0.00E+00
773,2.11E-01,2.27E-02,0.00E+00,3.39E-01,0.00E+00,0.00E+00
774,2.13E-01,2.26E-02,0.00E+00,3.39E-01,0.00E+00,0.00E+00
775,2.15E-01,2.25E-02,0.00E+00,3.39E-01,0.00E+00,0.00E+00
776,2.16E-01,2.24E-02,0.00E+00,3.39E-01,0.00E+00,0.00E+00
777,2.16E-01,2.22E-02,0.00E+00,3.40E-01,0.00E+00,0.00E+00
778,2.18E-01,2.19E-02,0.00E+00,3.40E-01,0.00E+00,0.00E+00
779,2.19E-01,2.15E-02,0.00E+00,3.39E-01,0.00E+00,0.00E+00
780,2.20E-01,2.13E-02,0.00E+00,3.39E-01,0.00E+00,0.00E+00
781,2.22E-01,2.11E-02,0.00E+00,3.38E-01,0.00E+00,0.00E+00
782,2.23E-01,2.08E-02,0.00E+00,3.36E-01,0.00E+00,0.00E+00
783,2.23E-01,2.06E-02,0.00E+00,3.35E-01,0.00E+00,0.00E+00
784,2.25E-01,2.03E-02,0.00E+00,3.33E-01,0.00E+00,0.00E+00
785,2.26E-01,2.00E-02,0.00E+00,3.31E-01,0.00E+00,0.00E+00
786,2.26E-01,1.95E-02,0.00E+00,3.27E-01,0.00E+00,0.00E+00
787,2.27E-01,1.91E-02,0.00E+00,3.23E-01,0.00E+00,0.00E+00
788,2.28E-01,1.90E-02,0.00E+00,3.19E-01,0.00E+00,0.00E+00
789,2.29E-01,1.89E-02,0.00E+00,3.16E-01,0.00E+00,0.00E+00
790,2.30E-01,1.88E-02,0.00E+00,3.13E-01,0.00E+00,0.00E+00
791,2.31E-01,1.88E-02,0.00E+00,3.11E-01,0.00E+00,0.00E+00
792,2.32E-01,1.88E-02,0.00E+00,3.09E-01,0.00E+00,0.00E+00
793,2.33E-01,1.87E-02,0.00E+00,3.07E-01,0.00E+00,0.00E+00
794,2.34E-01,1.87E-02,0.00E+00,3.06E-01,0.00E+00,0.00E+00
795,2.36E-01,1.86E-02,0.00E+00,3.05E-01,0.00E+00,0.00E+00
796,2.37E-01,1.87E-02,0.00E+00,3.04E-01,0.00E+00,0.00E+00
797,2.38E-01,1.87E-02,0.00E+00,3.03E-01,0.00E+00,0.00E+00
798,2.39E-01,1.87E-02,0.00E+00,3.02E-01,0.00E+00,0.00E+00
799,2.40E-01,1.87E-02,0.00E+00,3.01E-01,0.00E+00,0.00E+00
800,2.42E-01,1.88E-02,0.00E+00,3.00E-01,0.00E+00,0.00E+00
801,2.43E-01,1.88E-02,0.00E+00,2.99E-01,0.00E+00,0.00E+00
802,2.44E-01,1.89E-02,0.00E+00,2.99E-01,0.00E+00,0.00E+00
803,2.45E-01,1.90E-02,0.00E+00,2.99E-01,0.00E+00,0.00E+00
804,2.46E-01,1.92E-02,0.00E+00,2.99E-01,0.00E+00,0.00E+00
805,2.47E-01,1.93E-02,0.00E+00,2.99E-01,0.00E+00,0.00E+00
806,2.49E-01,1.94E-02,0.00E+00,2.98E-01,0.00E+00,0.00E+00
807,2.50E-01,1.95E-02,0.00E+00,2.98E-01,0.00E+00,0.00E+00
808,2.51E-01,1.94E-02,0.00E+00,2.97E-01,0.00E+00,0.00E+00
809,2.52E-01,1.93E-02,0.00E+00,2.96E-01,0.00E+00,0.00E+00
810,2.53E-01,1.92E-02,0.00E+00,2.96E-01,0.00E+00,0.00E+00
811,2.54E-01,1.92E-02,0.00E+00,2.97E-01,0.00E+00,0.00E+00
812,2.55E-01,1.93E-02,0.00E+00,2.97E-01,0.00E+00,0.00E+00
813,2.56E-01,1.93E-02,0.00E+00,2.97E-01,0.00E+00,0.00E+00
814,2.57E-01,1.95E-02,0.00E+00,2.97E-01,0.00E+00,0.00E+00
815,2.58E-01,1.96E-02,0.00E+00,2.96E-01,0.00E+00,0.00E+00
816,2.59E-01,1.97E-02,0.00E+00,2.96E-01,0.00E+00,0.00E+00
817,2.60E-01,1.98E-02,0.00E+00,2.96E-01,0.00E+00,0.00E+00
818,2.62E-01,1.98E-02,0.00E+00,2.96E-01,0.00E+00,0.00E+00
819,2.63E-01,1.99E-02,0.00E+00,2.97E-01,0.00E+00,0.00E+00
820,2.64E-01,1.99E-02,0.00E+00,2.97E-01,0.00E+00,0.00E+00
821,2.64E-01,1.99E-02,0.00E+00,2.96E-01,0.00E+00,0.00E+00
822,2.65E-01,1.99E-02,0.00E+00,2.96E-01,0.00E+00,0.00E+00
823,2.66E-01,2.01E-02,0.00E+00,2.96E-01,0.00E+00,0.00E+00
824,2.67E-01,2.03E-02,0.00E+00,2.96E-01,0.00E+00,0.00E+00
825,2.68E-01,2.03E-02,0.00E+00,2.96E-01,0.00E+00,0.00E+00
826,2.69E-01,2.04E-02,0.00E+00,2.96E-01,0.00E+00,0.00E+00
827,2.70E-01,2.04E-02,0.00E+00,2.96E-01,0.00E+00,0.00E+00
828,2.70E-01,2.04E-02,0.00E+00,2.97E-01,0.00E+00,0.00E+00
829,2.71E-01,2.04E-02,0.00E+00,2.97E-01,0.00E+00,0.00E+00
830,2.71E-01,2.04E-02,0.00E+00,2.97E-01,0.00E+00,0.00E+00
831,2.72E-01,2.06E-02,0.00E+00,2.97E-01,0.00E+00,0.00E+00
832,2.73E-01,2.07E-02,0.00E+00,2.97E-01,0.00E+00,0.00E+00
833,2.73E-01,2.08E-02,0.00E+00,2.97E-01,0.00E+00,0.00E+00
834,2.74E-01,2.08E-02,0.00E+00,2.98E-01,0.00E+00,0.00E+00
835,2.74E-01,2.09E-02,0.00E+00,2.98E-01,0.00E+00,0.00E+00
836,2.75E-01,2.09E-02,0.00E+00,2.98E-01,0.00E+00,0.00E+00
837,2.75E-01,2.10E-02,0.00E+00,2.99E-01,0.00E+00,0.00E+00
838,2.76E-01,2.11E-02,0.00E+00,2.99E-01,0.00E+00,0.00E+00
839,2.77E-01,2.12E-02,0.00E+00,2.99E-01,0.00E+00,0.00E+00
840,2.77E-01,2.12E-02,0.00E+00,3.00E-01,0.00E+00,0.00E+00
841,2.76E-01,2.12E-02,0.00E+00,3.00E-01,0.00E+00,0.00E+00
842,2.77E-01,2.12E-02,0.00E+00,3.00E-01,0.00E+00,0.00E+00
843,2.77E-01,2.12E-02,0.00E+00,3.01E-01,0.00E+00,0.00E+00
844,2.77E-01,2.11E-02,0.00E+00,3.01E-01,0.00E+00,0.00E+00
845,2.77E-01,2.12E-02,0.00E+00,3.01E-01,0.00E+00,0.00E+00
846,2.78E-01,2.14E-02,0.00E+00,3.02E-01,0.00E+00,0.00E+00
847,2.78E-01,2.16E-02,0.00E+00,3.02E-01,0.00E+00,0.00E+00
848,2.78E-01,2.18E-02,0.00E+00,3.03E-01,0.00E+00,0.00E+00
849,2.78E-01,2.19E-02,0.00E+00,3.04E-01,0.00E+00,0.00E+00
850,2.77E-01,2.19E-02,0.00E+00,3.04E-01,0.00E+00,0.00E+00
851,2.77E-01,2.19E-02,0.00E+00,3.04E-01,0.00E+00,0.00E+00
852,2.77E-01,2.17E-02,0.00E+00,3.04E-01,0.00E+00,0.00E+00
853,2.77E-01,2.17E-02,0.00E+00,3.05E-01,0.00E+00,0.00E+00
854,2.77E-01,2.16E-02,0.00E+00,3.05E-01,0.00E+00,0.00E+00
855,2.77E-01,2.17E-02,0.00E+00,3.05E-01,0.00E+00,0.00E+00
856,2.76E-01,2.17E-02,0.00E+00,3.06E-01,0.00E+00,0.00E+00
857,2.76E-01,2.18E-02,0.00E+00,3.06E-01,0.00E+00,0.00E+00
858,2.76E-01,2.19E-02,0.00E+00,3.06E-01,0.00E+00,0.00E+00
859,2.76E-01,2.20E-02,0.00E+00,3.07E-01,0.00E+00,0.00E+00
860,2.75E-01,2.21E-02,0.00E+00,3.08E-01,0.00E+00,0.00E+00
861,2.75E-01,2.23E-02,0.00E+00,3.10E-01,0.00E+00,0.00E+00
862,2.74E-01,2.25E-02,0.00E+00,3.12E-01,0.00E+00,0.00E+00
863,2.74E-01,2.26E-02,0.00E+00,3.13E-01,0.00E+00,0.00E+00
864,2.73E-01,2.26E-02,0.00E+00,3.14E-01,0.00E+00,0.00E+00
865,2.72E-01,2.25E-02,0.00E+00,3.15E-01,0.00E+00,0.00E+00
866,2.72E-01,2.25E-02,0.00E+00,3.15E-01,0.00E+00,0.00E+00
867,2.71E-01,2.25E-02,0.00E+00,3.16E-01,0.00E+00,0.00E+00
868,2.70E-01,2.26E-02,0.00E+00,3.17E-01,0.00E+00,0.00E+00
869,2.69E-01,2.29E-02,0.00E+00,3.19E-01,0.00E+00,0.00E+00
870,2.68E-01,2.32E-02,0.00E+00,3.20E-01,0.00E+00,0.00E+00
871,2.68E-01,2.35E-02,0.00E+00,3.22E-01,0.00E+00,0.00E+00
872,2.67E-01,2.36E-02,0.00E+00,3.24E-01,0.00E+00,0.00E+00
873,2.66E-01,2.36E-02,0.00E+00,3.25E-01,0.00E+00,0.00E+00
874,2.65E-01,2.35E-02,0.00E+00,3.26E-01,0.00E+00,0.00E+00
875,2.64E-01,2.34E-02,0.00E+00,3.27E-01,0.00E+00,0.00E+00
876,2.63E-01,2.33E-02,0.00E+00,3.28E-01,0.00E+00,0.00E+00
877,2.62E-01,2.35E-02,0.00E+00,3.27E-01,0.00E+00,0.00E+00
878,2.61E-01,2.37E-02,0.00E+00,3.27E-01,0.00E+00,0.00E+00
879,2.60E-01,2.41E-02,0.00E+00,3.27E-01,0.00E+00,0.00E+00
880,2.58E-01,2.45E-02,0.00E+00,3.27E-01,0.00E+00,0.00E+00
881,2.57E-01,2.50E-02,0.00E+00,3.28E-01,0.00E+00,0.00E+00
882,2.56E-01,2.54E-02,0.00E+00,3.28E-01,0.00E+00,0.00E+00
883,2.55E-01,2.57E-02,0.00E+00,3.29E-01,0.00E+00,0.00E+00
884,2.54E-01,2.58E-02,0.00E+00,3.30E-01,0.00E+00,0.00E+00
885,2.53E-01,2.57E-02,0.00E+00,3.31E-01,0.00E+00,0.00E+00
886,2.52E-01,2.56E-02,0.00E+00,3.31E-01,0.00E+00,0.00E+00
887,2.50E-01,2.53E-02,0.00E+00,3.32E-01,0.00E+00,0.00E+00
888,2.49E-01,2.52E-02,0.00E+00,3.32E-01,0.00E+00,0.00E+00
889,2.48E-01,2.50E-02,0.00E+00,3.33E-01,0.00E+00,0.00E+00
890,2.47E-01,2.48E-02,0.00E+00,3.35E-01,0.00E+00,0.00E+00
891,2.45E-01,2.47E-02,0.00E+00,3.37E-01,0.00E+00,0.00E+00
892,2.44E-01,2.48E-02,0.00E+00,3.39E-01,0.00E+00,0.00E+00
893,2.43E-01,2.50E-02,0.00E+00,3.40E-01,0.00E+00,0.00E+00
894,2.41E-01,2.52E-02,0.00E+00,3.41E-01,0.00E+00,0.00E+00
895,2.40E-01,2.54E-02,0.00E+00,3.42E-01,0.00E+00,0.00E+00
896,2.39E-01,2.55E-02,0.00E+00,3.44E-01,0.00E+00,0.00E+00
897,2.38E-01,2.56E-02,0.00E+00,3.45E-01,0.00E+00,0.00E+00
898,2.36E-01,2.57E-02,0.00E+00,3.46E-01,0.00E+00,0.00E+00
899,2.35E-01,2.58E-02,0.00E+00,3.47E-01,0.00E+00,0.00E+00
900,2.34E-01,2.59E-02,0.00E+00,3.48E-01,0.00E+00,0.00E+00
901,2.32E-01,2.59E-02,0.00E+00,3.48E-01,0.00E+00,7.00E-04
902,2.31E-01,2.60E-02,0.00E+00,3.49E-01,0.00E+00,1.40E-03
903,2.29E-01,2.61E-02,0.00E+00,3.50E-01,0.00E+00,2.10E-03
904,2.28E-01,2.63E-02,0.00E+00,3.52E-01,0.00E+00,2.80E-03
905,2.27E-01,2.65E-02,0.00E+00,3.55E-01,0.00E+00,3.50E-03
906,2.25E-01,2.66E-02,0.00E+00,3.57E-01,0.00E+00,4.20E-03
907,2.24E-01,2.68E-02,0.00E+00,3.60E-01,0.00E+00,4.90E-03
908,2.23E-01,2.69E-02,0.00E+00,3.62E-01,0.00E+00,5.60E-03
909,2.22E-01,2.70E-02,0.00E+00,3.65E-01,0.00E+00,6.30E-03
910,2.20E-01,2.72E-02,0.00E+00,3.68E-01,0.00E+00,7.00E-03
911,2.19E-01,2.73E-02,0.00E+00,3.70E-01,0.00E+00,7.70E-03
912,2.18E-01,2.74E-02,0.00E+00,3.72E-01,0.00E+00,8.40E-03
913,2.17E-01,2.74E-02,0.00E+00,3.73E-01,0.00E+00,9.10E-03
914,2.16E-01,2.75E-02,0.00E+00,3.74E-01,0.00E+00,9.80E-03
915,2.14E-01,2.75E-02,0.00E+00,3.76E-01,0.00E+00,1.05E-02
916,2.13E-01,2.75E-02,0.00E+00,3.78E-01,0.00E+00,1.12E-02
917,2.12E-01,2.76E-02,0.00E+00,3.80E-01,0.00E+00,1.19E-02
918,2.11E-01,2.77E-02,0.00E+00,3.83E-01,0.00E+00,1.26E-02
919,2.10E-01,2.79E-02,0.00E+00,3.86E-01,0.00E+00,1.33E-02
920,2.09E-01,2.81E-02,0.00E+00,3.89E-01,0.00E+00,1.40E-02
921,2.08E-01,2.82E-02,0.00E+00,3.92E-01,0.00E+00,1.47E-02
922,2.06E-01,2.83E-02,0.00E+00,3.95E-01,0.00E+00,1.54E-02
923,2.05E-01,2.84E-02,0.00E+00,3.97E-01,0.00E+00,1.61E-02
924,2.04E-01,2.84E-02,0.00E+00,4.00E-01,0.00E+00,1.68E-02
925,2.03E-01,2.86E-02,0.00E+00,4.02E-01,0.00E+00,1.75E-02
926,2.02E-01,2.87E-02,0.00E+00,4.05E-01,0.00E+00,1.82E-02
927,2.01E-01,2.88E-02,0.00E+00,4.08E-01,0.00E+00,1.89E-02
928,2.00E-01,2.88E-02,0.00E+00,4.11E-01,0.00E+00,1.96E-02
929,1.99E-01,2.87E-02,0.00E+00,4.14E-01,0.00E+00,2.03E-02
930,1.98E-01,2.86E-02,0.00E+00,4.17E-01,0.00E+00,2.10E-02
931,1.97E-01,2.86E-02,0.00E+00,4.20E-01,0.00E+00,2.17E-02
932,1.96E-01,2.86E-02,0.00E+00,4.23E-01,0.00E+00,2.24E-02
933,1.95E-01,2.86E-02,0.00E+00,4.26E-01,0.00E+00,2.31E-02
934,1.94E-01,2.86E-02,0.00E+00,4.29E-01,0.00E+00,2.38E-02
935,1.94E-01,2.86E-02,0.00E+00,4.32E-01,0.00E+00,2.45E-02
936,1.93E-01,2.86E-02,0.00E+00,4.35E-01,0.00E+00,2.52E-02
937,1.92E-01,2.86E-02,0.00E+00,4.37E-01,0.00E+00,2.59E-02
938,1.91E-01,2.86E-02,0.00E+00,4.40E-01,0.00E+00,2.66E-02
939,1.90E-01,2.86E-02,0.00E+00,4.44E-01,0.00E+00,2.73E-02
940,1.90E-01,2.86E-02,0.00E+00,4.47E-01,0.00E+00,2.80E-02
941,1.89E-01,2.86E-02,0.00E+00,4.50E-01,0.00E+00,2.87E-02
942,1.88E-01,2.86E-02,0.00E+00,4.53E-01,0.00E+00,2.94E-02
943,1.88E-01,2.85E-02,0.00E+00,4.57E-01,0.00E+00,3.01E-02
944,1.87E-01,2.84E-02,0.00E+00,4.60E-01,0.00E+00,3.08E-02
945,1.87E-01,2.83E-02,0.00E+00,4.63E-01,0.00E+00,3.15E-02
946,1.86E-01,2.82E-02,0.00E+00,4.67E-01,0.00E+00,3.22E-02
947,1.86E-01,2.81E-02,0.00E+00,4.71E-01,0.00E+00,3.29E-02
948,1.85E-01,2.79E-02,0.00E+00,4.74E-01,0.00E+00,3.36E-02
949,1.85E-01,2.76E-02,0.00E+00,4.77E-01,0.00E+00,3.43E-02
950,1.84E-01,2.72E-02,0.00E+00,4.79E-01,0.00E+00,3.50E-02
951,1.84E-01,2.68E-02,0.00E+00,4.81E-01,0.00E+00,3.57E-02
952,1.83E-01,2.65E-02,0.00E+00,4.83E-01,0.00E+00,3.64E-02
953,1.82E-01,2.63E-02,0.00E+00,4.84E-01,0.00E+00,3.71E-02
954,1.81E-01,2.63E-02,0.00E+00,4.86E-01,0.00E+00,3.78E-02
955,1.80E-01,2.63E-02,0.00E+00,4.88E-01,0.00E+00,3.85E-02
956,1.79E-01,2.63E-02,0.00E+00,4.91E-01,0.00E+00,3.92E-02
957,1.78E-01,2.64E-02,0.00E+00,4.94E-01,0.00E+00,3.99E-02
958,1.77E-01,2.65E-02,0.00E+00,4.96E-01,0.00E+00,4.06E-02
959,1.76E-01,2.65E-02,0.00E+00,4.99E-01,0.00E+00,4.13E-02
960,1.75E-01,2.66E-02,0.00E+00,5.02E-01,0.00E+00,4.20E-02
961,1.75E-01,2.67E-02,0.00E+00,5.05E-01,0.00E+00,4.27E-02
962,1.74E-01,2.69E-02,0.00E+00,5.09E-01,0.00E+00,4.34E-02
963,1.73E-01,2.70E-02,0.00E+00,5.12E-01,0.00E+00,4.41E-02
964,1.72E-01,2.72E-02,0.00E+00,5.15E-01,0.00E+00,4.48E-02
965,1.71E-01,2.74E-02,0.00E+00,5.19E-01,0.00E+00,4.55E-02
966,1.71E-01,2.75E-02,0.00E+00,5.22E-01,0.00E+00,4.62E-02
967,1.70E-01,2.76E-02,0.00E+00,5.26E-01,0.00E+00,4.69E-02
968,1.69E-01,2.77E-02,0.00E+00,5.29E-01,0.00E+00,4.76E-02
969,1.69E-01,2.79E-02,0.00E+00,5.33E-01,0.00E+00,4.83E-02
970,1.68E-01,2.81E-02,0.00E+00,5.37E-01,0.00E+00,4.90E-02
971,1.67E-01,2.83E-02,0.00E+00,5.40E-01,0.00E+00,4.97E-02
972,1.67E-01,2.85E-02,0.00E+00,5.44E-01,0.00E+00,5.04E-02
973,1.66E-01,2.86E-02,0.00E+00,5.47E-01,0.00E+00,5.11E-02
974,1.66E-01,2.87E-02,0.00E+00,5.51E-01,0.00E+00,5.18E-02
975,1.66E-01,2.87E-02,0.00E+00,5.56E-01,0.00E+00,5.25E-02
976,1.65E-01,2.88E-02,0.00E+00,5.60E-01,0.00E+00,5.32E-02
977,1.65E-01,2.90E-02,0.00E+00,5.64E-01,0.00E+00,5.39E-02
978,1.65E-01,2.92E-02,0.00E+00,5.69E-01,0.00E+00,5.46E-02
979,1.64E-01,2.95E-02,0.00E+00,5.73E-01,0.00E+00,5.53E-02
980,1.64E-01,2.97E-02,0.00E+00,5.78E-01,0.00E+00,5.60E-02
981,1.64E-01,2.98E-02,0.00E+00,5.83E-01,0.00E+00,5.67E-02
982,1.63E-01,2.99E-02,0.00E+00,5.88E-01,0.00E+00,5.74E-02
983,1.63E-01,2.99E-02,0.00E+00,5.93E-01,0.00E+00,5.81E-02
984,1.63E-01,2.99E-02,0.00E+00,5.99E-01,0.00E+00,5.88E-02
985,1.63E-01,3.00E-02,0.00E+00,6.05E-01,0.00E+00,5.95E-02
986,1.63E-01,3.01E-02,0.00E+00,6.11E-01,0.00E+00,6.02E-02
987,1.63E-01,3.02E-02,0.00E+00,6.17E-01,0.00E+00,6.09E-02
988,1.63E-01,3.02E-02,0.00E+00,6.24E-01,0.00E+00,6.16E-02
989,1.63E-01,3.03E-02,0.00E+00,6.31E-01,0.00E+00,6.23E-02
990,1.63E-01,3.03E-02,0.00E+00,6.39E-01,0.00E+00,6.30E-02
991,1.63E-01,3.03E-02,0.00E+00,6.48E-01,0.00E+00,6.37E-02
992,1.63E-01,3.04E-02,0.00E+00,6.58E-01,0.00E+00,6.44E-02
993,1.63E-01,3.04E-02,0.00E+00,6.69E-01,0.00E+00,6.51E-02
994,1.64E-01,3.04E-02,0.00E+00,6.81E-01,0.00E+00,6.58E-02
995,1.64E-01,3.04E-02,0.00E+00,6.93E-01,0.00E+00,6.65E-02
996,1.65E-01,3.03E-02,0.00E+00,7.04E-01,0.00E+00,6.72E-02
997,1.66E-01,3.03E-02,0.00E+00,7.15E-01,0.00E+00,6.79E-02
998,1.67E-01,3.03E-02,0.00E+00,7.25E-01,0.00E+00,6.86E-02
999,1.68E-01,3.03E-02,0.00E+00,7.37E-01,0.00E+00,6.93E-02
1000,1.69E-01,3.05E-02,0.00E+00,7.51E-01,0.00E+00,7.00E-02
1001,1.70E-01,3.07E-02,0.00E+00,7.67E-01,0.00E+00,0.0707
1002,1.71E-01,3.09E-02,0.00E+00,7.84E-01,0.00E+00,0.072209068
1003,1.71E-01,3.11E-02,2.17E-01,8.01E-01,0.00E+00,0.074971545
1004,1.73E-01,3.11E-02,2.18E-01,8.16E-01,0.00E+00,0.071811465
1005,1.74E-01,3.11E-02,2.16E-01,8.26E-01,0.00E+00,0.076380427
1006,1.75E-01,3.09E-02,2.20E-01,8.31E-01,0.00E+00,0.080949388
1007,1.75E-01,3.07E-02,2.15E-01,8.36E-01,0.00E+00,0.083439851
1008,1.76E-01,3.06E-02,2.17E-01,8.44E-01,0.00E+00,0.084087118
1009,1.76E-01,3.04E-02,2.16E-01,8.51E-01,0.00E+00,0.084734385
1010,1.76E-01,3.02E-02,2.07E-01,8.57E-01,0.00E+00,0.085047974
1011,1.77E-01,3.00E-02,2.07E-01,8.60E-01,0.00E+00,0.08490077
1012,1.78E-01,2.97E-02,2.09E-01,8.57E-01,0.00E+00,0.085488066
1013,1.79E-01,2.94E-02,2.17E-01,8.48E-01,0.00E+00,0.086898397
1014,1.81E-01,2.92E-02,2.14E-01,8.36E-01,0.00E+00,0.089180658
1015,1.83E-01,2.90E-02,2.22E-01,8.23E-01,0.00E+00,0.095584229
1016,1.86E-01,2.89E-02,2.29E-01,8.11E-01,0.00E+00,0.094712964
1017,1.88E-01,2.87E-02,2.37E-01,7.98E-01,0.00E+00,0.093841698
1018,1.90E-01,2.86E-02,2.35E-01,7.84E-01,0.00E+00,0.092970433
1019,1.93E-01,2.86E-02,2.39E-01,7.71E-01,0.00E+00,0.094510198
1020,1.95E-01,2.86E-02,2.48E-01,7.59E-01,0.00E+00,0.096081289
1021,1.98E-01,2.86E-02,2.55E-01,7.46E-01,0.00E+00,0.096113844
1022,2.01E-01,2.87E-02,2.59E-01,7.35E-01,0.00E+00,0.096130859
1023,2.03E-01,2.88E-02,2.67E-01,7.25E-01,0.00E+00,0.0965813
1024,2.06E-01,2.90E-02,2.75E-01,7.15E-01,0.00E+00,0.098662252
1025,2.09E-01,2.92E-02,2.74E-01,7.06E-01,0.00E+00,0.092207148
1026,2.12E-01,2.94E-02,2.82E-01,6.97E-01,0.00E+00,0.096606267
1027,2.15E-01,2.96E-02,2.92E-01,6.89E-01,0.00E+00,0.101662933
1028,2.17E-01,2.99E-02,2.91E-01,6.81E-01,0.00E+00,0.104769729
1029,2.20E-01,3.02E-02,3.03E-01,6.73E-01,0.00E+00,0.106215523
1030,2.23E-01,3.05E-02,3.07E-01,6.65E-01,0.00E+00,0.107629303
1031,2.26E-01,3.09E-02,3.11E-01,6.57E-01,0.00E+00,0.108995061
1032,2.28E-01,3.13E-02,3.25E-01,6.50E-01,0.00E+00,0.110360818
1033,2.30E-01,3.18E-02,3.27E-01,6.43E-01,0.00E+00,0.111419957
1034,2.33E-01,3.23E-02,3.29E-01,6.36E-01,0.00E+00,0.109719528
1035,2.35E-01,3.27E-02,3.38E-01,6.29E-01,0.00E+00,0.108019099
1036,2.37E-01,3.31E-02,3.41E-01,6.22E-01,0.00E+00,0.10842114
1037,2.39E-01,3.35E-02,3.51E-01,6.15E-01,0.00E+00,0.109451192
1038,2.41E-01,3.40E-02,3.55E-01,6.09E-01,0.00E+00,0.105547113
1039,2.43E-01,3.46E-02,3.56E-01,6.04E-01,0.00E+00,0.109286848
1040,2.44E-01,3.51E-02,3.59E-01,5.98E-01,0.00E+00,0.109684772
1041,2.45E-01,3.56E-02,3.64E-01,5.93E-01,0.00E+00,0.109349129
1042,2.46E-01,3.60E-02,3.71E-01,5.89E-01,0.00E+00,0.109828535
1043,2.48E-01,3.64E-02,3.65E-01,5.84E-01,0.00E+00,0.110511703
1044,2.48E-01,3.68E-02,3.62E-01,5.80E-01,0.00E+00,0.111199463
1045,2.49E-01,3.73E-02,3.72E-01,5.76E-01,0.00E+00,0.111888517
1046,2.49E-01,3.77E-02,3.76E-01,5.73E-01,0.00E+00,0.112185371
1047,2.50E-01,3.82E-02,3.74E-01,5.69E-01,0.00E+00,0.112365074
1048,2.50E-01,3.86E-02,3.73E-01,5.64E-01,0.00E+00,0.112165693
1049,2.50E-01,3.91E-02,3.71E-01,5.59E-01,0.00E+00,0.11183995
1050,2.50E-01,3.96E-02,3.73E-01,5.56E-01,0.00E+00,0.113741431
1051,2.50E-01,4.02E-02,3.70E-01,5.53E-01,0.00E+00,0.116466678
1052,2.50E-01,4.07E-02,3.64E-01,5.52E-01,0.00E+00,0.117028886
1053,2.50E-01,4.12E-02,3.66E-01,5.50E-01,0.00E+00,0.116707599
1054,2.50E-01,4.18E-02,3.61E-01,5.46E-01,0.00E+00,0.115840938
1055,2.50E-01,4.24E-02,3.54E-01,5.41E-01,0.00E+00,0.114729254
1056,2.51E-01,4.30E-02,3.44E-01,5.32E-01,0.00E+00,0.11361757
1057,2.51E-01,4.37E-02,3.31E-01,5.24E-01,0.00E+00,0.115719741
1058,2.50E-01,4.46E-02,3.09E-01,5.21E-01,0.00E+00,0.118413211
1059,2.49E-01,4.55E-02,2.87E-01,5.22E-01,0.00E+00,0.119452026
1060,2.47E-01,4.64E-02,2.68E-01,5.27E-01,0.00E+00,0.120148032
1061,2.46E-01,4.73E-02,2.57E-01,5.33E-01,0.00E+00,0.120651206
1062,2.45E-01,4.82E-02,2.49E-01,5.38E-01,0.00E+00,0.121301656
1063,2.44E-01,4.92E-02,2.35E-01,5.43E-01,0.00E+00,0.123032119
1064,2.44E-01,5.02E-02,2.27E-01,5.48E-01,0.00E+00,0.125070139
1065,2.45E-01,5.12E-02,2.18E-01,5.55E-01,0.00E+00,0.127304792
1066,2.46E-01,5.23E-02,2.16E-01,5.64E-01,0.00E+00,0.128042248
1067,2.48E-01,5.33E-02,2.08E-01,5.76E-01,0.00E+00,0.127739277
1068,2.49E-01,5.43E-02,2.00E-01,5.89E-01,0.00E+00,0.12801703
1069,2.52E-01,5.54E-02,1.95E-01,6.03E-01,0.00E+00,0.128732871
1070,2.55E-01,5.66E-02,1.97E-01,6.17E-01,0.00E+00,0.129452313
1071,2.58E-01,5.78E-02,1.89E-01,6.29E-01,0.00E+00,0.130174701
1072,2.61E-01,5.90E-02,1.88E-01,6.41E-01,0.00E+00,0.130896495
1073,2.66E-01,6.02E-02,1.81E-01,6.53E-01,0.00E+00,0.131617782
1074,2.70E-01,6.16E-02,1.81E-01,6.67E-01,0.00E+00,0.132868851
1075,2.76E-01,6.29E-02,1.72E-01,6.84E-01,0.00E+00,0.13460895
1076,2.82E-01,6.43E-02,1.76E-01,7.02E-01,0.00E+00,0.136350535
1077,2.89E-01,6.59E-02,1.73E-01,7.22E-01,0.00E+00,0.138093604
1078,2.97E-01,6.74E-02,1.74E-01,7.42E-01,0.00E+00,0.141471523
1079,3.05E-01,6.90E-02,1.69E-01,7.62E-01,0.00E+00,0.14662053
1080,3.14E-01,7.07E-02,1.69E-01,7.81E-01,0.00E+00,0.149794205
1081,3.25E-01,7.25E-02,1.65E-01,8.03E-01,0.00E+00,0.151812485
1082,3.37E-01,7.45E-02,1.63E-01,8.26E-01,0.00E+00,0.152546149
1083,3.51E-01,7.66E-02,1.66E-01,8.52E-01,0.00E+00,0.154556273
1084,3.67E-01,7.93E-02,1.68E-01,8.82E-01,0.00E+00,0.158190983
1085,3.87E-01,8.28E-02,1.65E-01,9.19E-01,0.00E+00,0.161774622
1086,4.09E-01,8.72E-02,1.67E-01,9.66E-01,0.00E+00,0.162855738
1087,4.32E-01,9.28E-02,1.72E-01,1.02E+00,0.00E+00,0.163936854
1088,4.51E-01,9.86E-02,1.74E-01,1.08E+00,0.00E+00,0.16552087
1089,4.64E-01,1.04E-01,1.83E-01,1.14E+00,0.00E+00,0.167330827
1090,4.73E-01,1.08E-01,1.93E-01,1.19E+00,0.00E+00,0.167964644
1091,4.78E-01,1.11E-01,1.97E-01,1.23E+00,0.00E+00,0.166679495
1092,4.81E-01,1.14E-01,1.98E-01,1.25E+00,0.00E+00,0.165761119
1093,4.85E-01,1.16E-01,2.03E-01,1.27E+00,0.00E+00,0.165494782
1094,4.87E-01,1.17E-01,2.12E-01,1.28E+00,0.00E+00,0.166020575
1095,4.89E-01,1.18E-01,2.12E-01,1.29E+00,0.00E+00,0.168084031
1096,4.91E-01,1.19E-01,2.15E-01,1.30E+00,0.00E+00,0.170147487
1097,4.93E-01,1.20E-01,2.14E-01,1.30E+00,0.00E+00,0.172210943
1098,4.94E-01,1.20E-01,2.16E-01,1.30E+00,0.00E+00,0.173494
1099,4.96E-01,1.20E-01,2.24E-01,1.29E+00,0.00E+00,0.175406525
1100,4.97E-01,1.21E-01,2.20E-01,1.29E+00,0.00E+00,0.179214941
1101,5.00E-01,1.21E-01,2.24E-01,1.29E+00,0.00E+00,0.183024512
1102,5.04E-01,1.21E-01,2.16E-01,1.28E+00,0.00E+00,0.186837053
1103,5.10E-01,1.21E-01,2.16E-01,1.27E+00,0.00E+00,0.190649594
1104,5.18E-01,1.22E-01,2.15E-01,1.27E+00,0.00E+00,0.194340219
1105,5.30E-01,1.23E-01,2.15E-01,1.26E+00,0.00E+00,0.197665095
1106,5.43E-01,1.24E-01,2.15E-01,1.26E+00,0.00E+00,0.201591579
1107,5.58E-01,1.25E-01,2.13E-01,1.26E+00,0.00E+00,0.207423158
1108,5.75E-01,1.27E-01,2.08E-01,1.26E+00,0.00E+00,0.214733307
1109,5.94E-01,1.29E-01,2.04E-01,1.26E+00,0.00E+00,0.220708709
1110,6.13E-01,1.31E-01,2.10E-01,1.26E+00,0.00E+00,0.226176258
1111,6.34E-01,1.33E-01,2.21E-01,1.26E+00,0.00E+00,0.23273255
1112,6.56E-01,1.35E-01,2.10E-01,1.26E+00,0.00E+00,0.240210535
1113,6.80E-01,1.38E-01,2.11E-01,1.26E+00,0.00E+00,0.248103287
1114,7.03E-01,1.40E-01,2.13E-01,1.27E+00,0.00E+00,0.257358911
1115,7.28E-01,1.43E-01,2.14E-01,1.27E+00,0.00E+00,0.268628515
1116,7.54E-01,1.46E-01,2.12E-01,1.27E+00,0.00E+00,0.279269307
1117,7.79E-01,1.49E-01,2.12E-01,1.27E+00,0.00E+00,0.294403287
1118,8.04E-01,1.52E-01,2.14E-01,1.27E+00,0.00E+00,0.30566185
1119,8.30E-01,1.55E-01,2.18E-01,1.27E+00,0.00E+00,0.320954465
1120,8.55E-01,1.58E-01,2.18E-01,1.28E+00,0.00E+00,0.33865296
1121,8.79E-01,1.62E-01,2.20E-01,1.28E+00,0.00E+00,0.353752842
1122,9.01E-01,1.65E-01,2.11E-01,1.29E+00,0.00E+00,0.379608196
1123,9.22E-01,1.68E-01,2.14E-01,1.29E+00,0.00E+00,0.400417139
1124,9.41E-01,1.72E-01,2.20E-01,1.30E+00,0.00E+00,0.421089277
1125,9.57E-01,1.75E-01,2.19E-01,1.31E+00,0.00E+00,0.440178495
1126,9.70E-01,1.79E-01,2.14E-01,1.32E+00,0.00E+00,0.45343916
1127,9.82E-01,1.82E-01,2.24E-01,1.33E+00,0.00E+00,0.487301069
1128,9.91E-01,1.86E-01,2.18E-01,1.34E+00,0.00E+00,0.503591574
1129,9.97E-01,1.90E-01,2.22E-01,1.35E+00,0.00E+00,0.526134735
1130,9.99E-01,1.93E-01,2.20E-01,1.36E+00,0.00E+00,0.560636051
1131,1.00E+00,1.97E-01,2.22E-01,1.38E+00,0.00E+00,0.579559287
1132,9.99E-01,2.00E-01,2.21E-01,1.39E+00,0.00E+00,0.607316385
1133,9.93E-01,2.04E-01,2.18E-01,1.41E+00,0.00E+00,0.62923139
1134,9.85E-01,2.07E-01,2.15E-01,1.43E+00,0.00E+00,0.638798267
1135,9.76E-01,2.11E-01,2.29E-01,1.45E+00,0.00E+00,0.65806092
1136,9.65E-01,2.14E-01,2.25E-01,1.47E+00,0.00E+00,0.673291198
1137,9.51E-01,2.18E-01,2.22E-01,1.49E+00,0.00E+00,0.685227208
1138,9.36E-01,2.21E-01,2.16E-01,1.52E+00,0.00E+00,0.697165178
1139,9.22E-01,2.25E-01,2.15E-01,1.54E+00,0.00E+00,0.710689931
1140,9.05E-01,2.28E-01,2.18E-01,1.57E+00,0.00E+00,0.71773405
1141,8.87E-01,2.32E-01,2.14E-01,1.60E+00,0.00E+00,0.724515455
1142,8.68E-01,2.35E-01,2.14E-01,1.63E+00,0.00E+00,0.730755384
1143,8.51E-01,2.39E-01,2.20E-01,1.67E+00,0.00E+00,0.734646775
1144,8.33E-01,2.42E-01,2.17E-01,1.71E+00,0.00E+00,0.733906351
1145,8.14E-01,2.46E-01,2.08E-01,1.75E+00,0.00E+00,0.732707837
1146,7.97E-01,2.49E-01,2.15E-01,1.80E+00,0.00E+00,0.731512847
1147,7.83E-01,2.52E-01,2.13E-01,1.86E+00,0.00E+00,0.730318292
1148,7.72E-01,2.55E-01,2.16E-01,1.92E+00,0.00E+00,0.734740007
1149,7.62E-01,2.58E-01,2.20E-01,1.97E+00,0.00E+00,0.737555318
1150,7.55E-01,2.61E-01,2.15E-01,2.02E+00,0.00E+00,0.736022868
1151,7.49E-01,2.64E-01,2.14E-01,2.07E+00,4.61E-03,0.732879726
1152,7.42E-01,2.67E-01,2.13E-01,2.11E+00,9.22E-03,0.729452345
1153,7.34E-01,2.71E-01,2.19E-01,2.15E+00,1.38E-02,0.725760361
1154,7.27E-01,2.75E-01,2.20E-01,2.20E+00,1.84E-02,0.721531153
1155,7.21E-01,2.79E-01,2.15E-01,2.24E+00,2.30E-02,0.716672891
1156,7.14E-01,2.83E-01,2.14E-01,2.27E+00,2.76E-02,0.709805267
1157,7.06E-01,2.87E-01,2.19E-01,2.30E+00,3.23E-02,0.701516733
1158,7.00E-01,2.92E-01,2.15E-01,2.34E+00,3.69E-02,0.693230158
1159,6.93E-01,2.97E-01,2.16E-01,2.38E+00,4.15E-02,0.684945545
1160,6.86E-01,3.02E-01,2.18E-01,2.42E+00,4.61E-02,0.66995058
1161,6.79E-01,3.07E-01,2.18E-01,2.45E+00,6.07E-02,0.660617644
1162,6.72E-01,3.12E-01,2.14E-01,2.49E+00,7.53E-02,0.654370861
1163,6.65E-01,3.18E-01,2.11E-01,2.53E+00,8.99E-02,0.647638703
1164,6.57E-01,3.25E-01,2.13E-01,2.56E+00,1.04E-01,0.639363149
1165,6.49E-01,3.32E-01,2.09E-01,2.60E+00,1.19E-01,0.631090317
1166,6.42E-01,3.41E-01,2.12E-01,2.64E+00,1.34E-01,0.622392584
1167,6.35E-01,3.49E-01,2.17E-01,2.67E+00,1.48E-01,0.612903871
1168,6.28E-01,3.56E-01,2.12E-01,2.69E+00,1.63E-01,0.59971881
1169,6.22E-01,3.63E-01,2.15E-01,2.71E+00,1.77E-01,0.583566772
1170,6.16E-01,3.70E-01,2.18E-01,2.72E+00,1.92E-01,0.574937069
1171,6.11E-01,3.77E-01,2.14E-01,2.71E+00,2.13E-01,0.56429796
1172,6.05E-01,3.83E-01,2.18E-01,2.70E+00,2.34E-01,0.552299584
1173,5.99E-01,3.89E-01,2.20E-01,2.69E+00,2.55E-01,0.542314683
1174,5.95E-01,3.95E-01,2.21E-01,2.69E+00,2.76E-01,0.534059238
1175,5.89E-01,4.01E-01,2.20E-01,2.67E+00,2.98E-01,0.525275941
1176,5.83E-01,4.06E-01,2.22E-01,2.64E+00,3.19E-01,0.513447941
1177,5.78E-01,4.11E-01,2.24E-01,2.60E+00,3.40E-01,0.5042856
1178,5.74E-01,4.16E-01,2.26E-01,2.58E+00,3.61E-01,0.486177595
1179,5.69E-01,4.20E-01,2.24E-01,2.54E+00,3.82E-01,0.473970491
1180,5.64E-01,4.24E-01,2.23E-01,2.50E+00,4.03E-01,0.468063168
1181,5.59E-01,4.27E-01,2.23E-01,2.47E+00,4.19E-01,0.459983366
1182,5.55E-01,4.31E-01,2.23E-01,2.44E+00,4.35E-01,0.447618584
1183,5.50E-01,4.33E-01,2.23E-01,2.39E+00,4.50E-01,0.44079332
1184,5.45E-01,4.35E-01,2.23E-01,2.35E+00,4.66E-01,0.428924947
1185,5.40E-01,4.36E-01,2.25E-01,2.31E+00,4.82E-01,0.4207134
1186,5.36E-01,4.38E-01,2.21E-01,2.26E+00,4.98E-01,0.406407947
1187,5.31E-01,4.39E-01,2.23E-01,2.22E+00,5.13E-01,0.402256632
1188,5.26E-01,4.41E-01,2.21E-01,2.19E+00,5.29E-01,0.397571584
1189,5.22E-01,4.43E-01,2.24E-01,2.15E+00,5.45E-01,0.392393861
1190,5.17E-01,4.45E-01,2.25E-01,2.12E+00,5.61E-01,0.387039768
1191,5.12E-01,4.47E-01,2.27E-01,2.09E+00,5.83E-01,0.381509305
1192,5.07E-01,4.49E-01,2.22E-01,2.05E+00,6.05E-01,0.376654795
1193,5.03E-01,4.52E-01,2.25E-01,2.02E+00,6.27E-01,0.373360772
1194,4.99E-01,4.54E-01,2.20E-01,1.99E+00,6.50E-01,0.371749881
1195,4.94E-01,4.56E-01,2.26E-01,1.96E+00,6.72E-01,0.368505079
1196,4.89E-01,4.58E-01,2.24E-01,1.93E+00,6.94E-01,0.363342208
1197,4.85E-01,4.61E-01,2.22E-01,1.90E+00,7.17E-01,0.359075238
1198,4.81E-01,4.63E-01,2.18E-01,1.87E+00,7.39E-01,0.355948505
1199,4.76E-01,4.65E-01,2.24E-01,1.83E+00,7.61E-01,0.352602731
1200,4.72E-01,4.68E-01,2.18E-01,1.80E+00,7.83E-01,0.348954473
1201,4.68E-01,4.70E-01,2.24E-01,1.78E+00,7.96E-01,0.345732144
1202,4.64E-01,4.72E-01,2.25E-01,1.75E+00,8.08E-01,0.343122738
1203,4.59E-01,4.74E-01,2.22E-01,1.72E+00,8.20E-01,0.340911054
1204,4.55E-01,4.76E-01,2.20E-01,1.69E+00,8.33E-01,0.33932145
1205,4.51E-01,4.78E-01,2.20E-01,1.66E+00,8.45E-01,0.336536894
1206,4.47E-01,4.80E-01,2.21E-01,1.63E+00,8.57E-01,0.331717689
1207,4.43E-01,4.81E-01,2.23E-01,1.61E+00,8.69E-01,0.328654934
1208,4.39E-01,4.83E-01,2.23E-01,1.58E+00,8.82E-01,0.326119678
1209,4.36E-01,4.85E-01,2.20E-01,1.56E+00,8.94E-01,0.324033045
1210,4.32E-01,4.86E-01,2.23E-01,1.53E+00,9.06E-01,0.3226185
1211,4.28E-01,4.86E-01,2.19E-01,1.51E+00,9.13E-01,0.3225685
1212,4.24E-01,4.86E-01,2.27E-01,1.49E+00,9.20E-01,0.322306
1213,4.21E-01,4.87E-01,2.28E-01,1.47E+00,9.27E-01,0.321570516
1214,4.18E-01,4.86E-01,2.27E-01,1.45E+00,9.34E-01,0.320835032
1215,4.14E-01,4.86E-01,2.25E-01,1.43E+00,9.41E-01,0.320429543
1216,4.11E-01,4.85E-01,2.23E-01,1.41E+00,9.48E-01,0.321265461
1217,4.08E-01,4.85E-01,2.23E-01,1.39E+00,9.55E-01,0.32210138
1218,4.04E-01,4.83E-01,2.23E-01,1.37E+00,9.62E-01,0.322276331
1219,4.01E-01,4.81E-01,2.27E-01,1.35E+00,9.69E-01,0.322497535
1220,3.97E-01,4.79E-01,2.24E-01,1.32E+00,9.75E-01,0.323483673
1221,3.93E-01,4.76E-01,2.19E-01,1.30E+00,9.77E-01,0.324938238
1222,3.89E-01,4.72E-01,2.21E-01,1.27E+00,9.78E-01,0.32796101
1223,3.86E-01,4.67E-01,2.18E-01,1.24E+00,9.80E-01,0.330773033
1224,3.82E-01,4.62E-01,2.20E-01,1.21E+00,9.82E-01,0.332792238
1225,3.78E-01,4.55E-01,2.19E-01,1.18E+00,9.83E-01,0.334811444
1226,3.73E-01,4.46E-01,2.15E-01,1.14E+00,9.85E-01,0.336384473
1227,3.67E-01,4.39E-01,2.10E-01,1.09E+00,9.86E-01,0.336055382
1228,3.60E-01,4.34E-01,2.05E-01,1.06E+00,9.88E-01,0.335726291
1229,3.53E-01,4.32E-01,2.03E-01,1.03E+00,9.89E-01,0.338402373
1230,3.46E-01,4.31E-01,2.01E-01,1.01E+00,9.91E-01,0.341108811
1231,3.42E-01,4.29E-01,1.99E-01,1.01E+00,9.92E-01,0.34337001
1232,3.39E-01,4.28E-01,1.98E-01,1.01E+00,9.92E-01,0.345401842
1233,3.37E-01,4.24E-01,1.98E-01,1.01E+00,9.93E-01,0.347433675
1234,3.36E-01,4.21E-01,2.01E-01,1.01E+00,9.94E-01,0.352810051
1235,3.36E-01,4.19E-01,2.01E-01,1.01E+00,9.95E-01,0.356770863
1236,3.36E-01,4.19E-01,2.02E-01,1.01E+00,9.95E-01,0.359491464
1237,3.37E-01,4.18E-01,2.03E-01,1.02E+00,9.96E-01,0.360422794
1238,3.36E-01,4.19E-01,2.06E-01,1.02E+00,9.97E-01,0.359076871
1239,3.36E-01,4.18E-01,2.07E-01,1.03E+00,9.98E-01,0.356542359
1240,3.36E-01,4.18E-01,2.11E-01,1.03E+00,9.98E-01,0.347063296
1241,3.34E-01,4.16E-01,2.08E-01,1.03E+00,9.98E-01,0.343009648
1242,3.33E-01,4.14E-01,2.13E-01,1.03E+00,9.98E-01,0.338956
1243,3.31E-01,4.13E-01,2.14E-01,1.02E+00,9.98E-01,0.33898108
1244,3.30E-01,4.13E-01,2.11E-01,1.02E+00,9.98E-01,0.339006161
1245,3.28E-01,4.14E-01,2.12E-01,1.01E+00,9.98E-01,0.339031241
1246,3.26E-01,4.16E-01,2.09E-01,1.01E+00,9.98E-01,0.344474981
1247,3.25E-01,4.19E-01,2.04E-01,1.01E+00,9.98E-01,0.34723882
1248,3.24E-01,4.22E-01,2.07E-01,1.01E+00,9.98E-01,0.34320191
1249,3.23E-01,4.25E-01,2.09E-01,1.01E+00,9.98E-01,0.339165
1250,3.22E-01,4.29E-01,2.06E-01,1.01E+00,9.98E-01,0.340011305
1251,3.22E-01,4.33E-01,2.05E-01,1.01E+00,9.98E-01,0.340857611
1252,3.22E-01,4.38E-01,2.03E-01,1.01E+00,9.98E-01,0.34158569
1253,3.22E-01,4.45E-01,2.04E-01,1.01E+00,9.97E-01,0.342310112
1254,3.23E-01,4.52E-01,2.08E-01,1.02E+00,9.97E-01,0.343034535
1255,3.23E-01,4.60E-01,2.07E-01,1.02E+00,9.97E-01,0.343980731
1256,3.24E-01,4.69E-01,2.03E-01,1.02E+00,9.96E-01,0.344941084
1257,3.24E-01,4.79E-01,2.01E-01,1.03E+00,9.96E-01,0.345901436
1258,3.24E-01,4.91E-01,2.04E-01,1.03E+00,9.95E-01,0.346861789
1259,3.24E-01,5.06E-01,2.05E-01,1.02E+00,9.95E-01,0.34746343
1260,3.23E-01,5.26E-01,2.05E-01,1.02E+00,9.95E-01,0.347527007
1261,3.22E-01,5.49E-01,2.05E-01,1.01E+00,9.95E-01,0.347596275
1262,3.22E-01,5.78E-01,2.05E-01,1.00E+00,9.95E-01,0.347666246
1263,3.23E-01,6.09E-01,2.07E-01,1.00E+00,9.95E-01,0.347736218
1264,3.23E-01,6.40E-01,2.06E-01,1.00E+00,9.95E-01,0.34707802
1265,3.24E-01,6.71E-01,2.11E-01,1.00E+00,9.95E-01,0.345125297
1266,3.25E-01,7.02E-01,2.17E-01,1.00E+00,9.95E-01,0.343172574
1267,3.26E-01,7.33E-01,2.18E-01,1.00E+00,9.95E-01,0.341219851
1268,3.26E-01,7.61E-01,2.18E-01,1.00E+00,9.95E-01,0.339267258
1269,3.27E-01,7.88E-01,2.17E-01,1.01E+00,9.95E-01,0.33731494
1270,3.28E-01,8.17E-01,2.19E-01,1.01E+00,9.95E-01,0.336286425
1271,3.28E-01,8.45E-01,2.26E-01,1.01E+00,9.95E-01,0.335474604
1272,3.29E-01,8.69E-01,2.28E-01,1.01E+00,9.95E-01,0.334662783
1273,3.29E-01,8.93E-01,2.28E-01,1.00E+00,9.95E-01,0.334606654
1274,3.30E-01,9.16E-01,2.29E-01,1.01E+00,9.95E-01,0.334906145
1275,3.30E-01,9.36E-01,2.32E-01,1.01E+00,9.95E-01,0.335205636
1276,3.31E-01,9.52E-01,2.38E-01,1.00E+00,9.95E-01,0.335505127
1277,3.31E-01,9.66E-01,2.39E-01,1.00E+00,9.95E-01,0.334899802
1278,3.32E-01,9.80E-01,2.37E-01,1.00E+00,9.95E-01,0.333992871
1279,3.33E-01,9.89E-01,2.38E-01,1.00E+00,9.95E-01,0.331235282
1280,3.33E-01,9.93E-01,2.43E-01,1.00E+00,9.95E-01,0.327793203
1281,3.33E-01,9.97E-01,2.39E-01,1.00E+00,9.97E-01,0.32435499
1282,3.34E-01,1.00E+00,2.44E-01,1.00E+00,1.00E+00,0.320918356
1283,3.34E-01,9.98E-01,2.48E-01,9.99E-01,1.00E+00,0.319587299
1284,3.34E-01,9.91E-01,2.49E-01,9.97E-01,1.01E+00,0.319202224
1285,3.35E-01,9.84E-01,2.47E-01,9.95E-01,1.01E+00,0.314892405
1286,3.35E-01,9.76E-01,2.54E-01,9.93E-01,1.01E+00,0.308735649
1287,3.35E-01,9.63E-01,2.52E-01,9.91E-01,1.01E+00,0.305986174
1288,3.35E-01,9.47E-01,2.49E-01,9.89E-01,1.02E+00,0.303934575
1289,3.35E-01,9.32E-01,2.55E-01,9.87E-01,1.02E+00,0.301335248
1290,3.35E-01,9.16E-01,2.57E-01,9.86E-01,1.02E+00,0.298427822
1291,3.35E-01,8.97E-01,2.58E-01,9.84E-01,1.03E+00,0.294893644
1292,3.35E-01,8.76E-01,2.57E-01,9.82E-01,1.03E+00,0.290975327
1293,3.35E-01,8.55E-01,2.60E-01,9.80E-01,1.04E+00,0.286236742
1294,3.35E-01,8.34E-01,2.61E-01,9.77E-01,1.04E+00,0.281196338
1295,3.34E-01,8.12E-01,2.65E-01,9.74E-01,1.04E+00,0.278633424
1296,3.34E-01,7.89E-01,2.64E-01,9.71E-01,1.05E+00,0.275881604
1297,3.33E-01,7.67E-01,2.63E-01,9.70E-01,1.05E+00,0.27299299
1298,3.32E-01,7.44E-01,2.71E-01,9.70E-01,1.06E+00,0.269539294
1299,3.31E-01,7.21E-01,2.66E-01,9.70E-01,1.06E+00,0.265641604
1300,3.30E-01,6.97E-01,2.69E-01,9.71E-01,1.07E+00,0.261743914
1301,3.29E-01,6.75E-01,2.78E-01,9.71E-01,1.08E+00,0.258922139
1302,3.28E-01,6.53E-01,2.77E-01,9.71E-01,1.08E+00,0.257054478
1303,3.26E-01,6.31E-01,2.79E-01,9.70E-01,1.09E+00,0.252739684
1304,3.25E-01,6.09E-01,2.82E-01,9.68E-01,1.10E+00,0.246166
1305,3.23E-01,5.88E-01,2.85E-01,9.66E-01,1.11E+00,0.239552755
1306,3.21E-01,5.67E-01,2.89E-01,9.65E-01,1.12E+00,0.233607662
1307,3.19E-01,5.46E-01,2.97E-01,9.64E-01,1.13E+00,0.228357993
1308,3.16E-01,5.26E-01,3.03E-01,9.66E-01,1.13E+00,0.220473158
1309,3.14E-01,5.07E-01,3.08E-01,9.70E-01,1.14E+00,0.212537426
1310,3.11E-01,4.89E-01,3.11E-01,9.71E-01,1.15E+00,0.207189854
1311,3.08E-01,4.71E-01,3.20E-01,9.72E-01,1.17E+00,0.201967408
1312,3.05E-01,4.53E-01,3.24E-01,9.74E-01,1.19E+00,0.196766092
1313,3.01E-01,4.35E-01,3.33E-01,9.78E-01,1.20E+00,0.184766748
1314,2.98E-01,4.17E-01,3.41E-01,9.83E-01,1.22E+00,0.178876153
1315,2.93E-01,4.00E-01,3.54E-01,9.89E-01,1.24E+00,0.177919325
1316,2.90E-01,3.84E-01,3.57E-01,9.94E-01,1.26E+00,0.175277735
1317,2.86E-01,3.69E-01,3.70E-01,9.97E-01,1.28E+00,0.169377073
1318,2.81E-01,3.53E-01,3.83E-01,9.99E-01,1.30E+00,0.163479947
1319,2.76E-01,3.37E-01,3.96E-01,1.00E+00,1.31E+00,0.15811275
1320,2.70E-01,3.22E-01,4.11E-01,1.01E+00,1.33E+00,0.153609461
1321,2.65E-01,3.07E-01,4.30E-01,1.03E+00,1.35E+00,0.144346673
1322,2.60E-01,2.94E-01,4.43E-01,1.05E+00,1.36E+00,0.140004099
1323,2.54E-01,2.80E-01,4.63E-01,1.08E+00,1.38E+00,0.13536955
1324,2.48E-01,2.67E-01,4.87E-01,1.11E+00,1.40E+00,0.130168225
1325,2.42E-01,2.54E-01,5.06E-01,1.15E+00,1.41E+00,0.115349861
1326,2.36E-01,2.41E-01,5.27E-01,1.19E+00,1.43E+00,0.1043382
1327,2.30E-01,2.29E-01,5.56E-01,1.24E+00,1.45E+00,0.091603115
1328,2.24E-01,2.17E-01,5.76E-01,1.31E+00,1.46E+00,0.084714652
1329,2.17E-01,2.05E-01,5.94E-01,1.41E+00,1.48E+00,0.078842716
1330,2.08E-01,1.93E-01,6.38E-01,1.54E+00,1.50E+00,0.073010441
1331,1.94E-01,1.82E-01,7.62E-01,1.63E+00,1.37E+00,0.06794714
1332,1.77E-01,1.71E-01,1.00E+00,1.64E+00,1.25E+00,0.06413435
1333,1.56E-01,1.60E-01,1.02E+00,1.51E+00,1.13E+00,0.060321432
1334,1.35E-01,1.47E-01,7.44E-01,1.25E+00,1.01E+00,0.056506077
1335,1.16E-01,1.32E-01,4.51E-01,9.65E-01,8.83E-01,0.052705259
1336,1.02E-01,1.15E-01,2.48E-01,7.03E-01,7.60E-01,0.048918977
1337,9.32E-02,9.93E-02,1.41E-01,4.96E-01,6.37E-01,0.045114039
1338,8.97E-02,8.37E-02,9.92E-02,3.50E-01,5.15E-01,0.041319225
1339,9.03E-02,6.75E-02,7.22E-02,2.45E-01,3.92E-01,0.03754211
1340,1.02E-01,5.18E-02,5.68E-02,1.72E-01,2.69E-01,0.033892273
1341,1.43E-01,3.88E-02,4.94E-02,1.24E-01,2.50E-01,0.030268506
1342,2.05E-01,2.88E-02,4.40E-02,9.39E-02,2.30E-01,0.026548272
1343,2.93E-01,2.23E-02,3.86E-02,7.33E-02,2.11E-01,0.024019336
1344,3.60E-01,1.81E-02,3.31E-02,5.93E-02,1.92E-01,0.024001262
1345,3.23E-01,1.46E-02,2.77E-02,4.94E-02,1.73E-01,0.022803317
1346,2.31E-01,1.18E-02,2.22E-02,4.23E-02,1.54E-01,0.019074889
1347,1.42E-01,9.45E-03,1.68E-02,3.66E-02,1.34E-01,0.018003232
1348,6.66E-02,7.72E-03,1.57E-02,3.22E-02,1.15E-01,0.016931575
1349,3.50E-02,6.68E-03,1.77E-02,2.83E-02,9.60E-02,0.016086918
1350,2.30E-02,6.02E-03,9.37E-03,2.53E-02,7.68E-02,0.017078898
1351,1.57E-02,5.43E-03,8.94E-03,2.37E-02,6.91E-02,0.018070878
1352,1.30E-02,4.98E-03,1.66E-02,2.24E-02,6.14E-02,0.018743116
1353,1.08E-02,4.65E-03,2.13E-02,2.04E-02,5.38E-02,0.015738314
1354,9.19E-03,4.35E-03,1.34E-02,1.86E-02,4.61E-02,0.012811111
1355,7.31E-03,4.01E-03,9.36E-03,1.70E-02,3.84E-02,0.011099627
1356,6.07E-03,3.74E-03,9.42E-03,1.62E-02,3.07E-02,0.010431533
1357,5.75E-03,3.56E-03,6.25E-03,1.66E-02,2.30E-02,0.01076591
1358,5.81E-03,3.42E-03,9.87E-03,1.67E-02,1.54E-02,0.010858007
1359,6.00E-03,3.29E-03,8.52E-03,1.61E-02,7.68E-03,0.009846379
1360,6.28E-03,3.20E-03,1.66E-02,1.38E-02,0.00E+00,0.008834751
1361,6.41E-03,3.12E-03,8.80E-03,9.83E-03,0.00E+00,0.008965873
1362,5.50E-03,2.96E-03,2.85E-03,6.46E-03,0.00E+00,0.009314663
1363,3.68E-03,2.77E-03,-5.17E-04,4.79E-03,0.00E+00,0.00966691
1364,2.53E-03,2.66E-03,5.15E-04,6.77E-03,0.00E+00,0.010022477
1365,2.20E-03,2.66E-03,-7.13E-04,1.13E-02,0.00E+00,0.009748532
1366,2.09E-03,2.66E-03,-1.91E-03,1.35E-02,0.00E+00,0.009448357
1367,2.08E-03,2.61E-03,1.28E-03,1.32E-02,0.00E+00,0.008324489
1368,2.03E-03,2.41E-03,-2.15E-04,1.19E-02,0.00E+00,0.007166301
1369,1.95E-03,2.13E-03,2.36E-03,1.04E-02,0.00E+00,0.007448464
1370,1.82E-03,1.99E-03,-3.93E-03,1.09E-02,0.00E+00,0.007822563
1371,1.78E-03,1.94E-03,-1.66E-03,1.17E-02,0.00E+00,0.008673324
1372,2.23E-03,1.98E-03,4.57E-03,9.53E-03,0.00E+00,0.009559963
1373,2.66E-03,1.99E-03,6.70E-03,5.88E-03,0.00E+00,0.009377035
1374,2.21E-03,1.70E-03,4.74E-03,1.86E-03,0.00E+00,0.009088325
1375,1.51E-03,1.36E-03,-3.22E-03,-3.54E-04,0.00E+00,0.008799616
1376,1.23E-03,1.27E-03,-5.45E-03,3.45E-03,0.00E+00,0.008510907
1377,1.05E-03,1.25E-03,-3.27E-04,8.36E-03,0.00E+00,0.008143927
1378,8.41E-04,1.21E-03,3.46E-04,1.03E-02,0.00E+00,0.007643676
1379,7.00E-04,1.17E-03,-2.87E-03,1.14E-02,0.00E+00,0.007143425
1380,6.99E-04,1.12E-03,-2.86E-03,1.22E-02,0.00E+00,0.006643174
1381,6.98E-04,1.08E-03,-2.84E-03,1.27E-02,0.00E+00,0.006142923
1382,6.12E-04,1.05E-03,-2.85E-03,1.31E-02,0.00E+00,0.005050846
1383,6.96E-04,1.06E-03,-2.83E-03,1.35E-02,0.00E+00,0.003837553
1384,1.06E-03,1.11E-03,-2.85E-03,1.36E-02,0.00E+00,0.003130566
1385,1.35E-03,1.12E-03,-2.85E-03,1.16E-02,0.00E+00,0.00355052
1386,1.41E-03,1.03E-03,-2.87E-03,7.22E-03,0.00E+00,0.003977765
1387,1.19E-03,8.82E-04,-2.93E-03,3.95E-03,0.00E+00,0.00440695
1388,7.35E-04,7.31E-04,-3.14E-03,3.17E-03,0.00E+00,0.00484052
1389,4.14E-04,6.74E-04,-2.86E-03,4.89E-03,0.00E+00,0.005275328
1390,3.65E-04,7.34E-04,-2.84E-03,8.47E-03,0.00E+00,0.005710136
1391,6.63E-04,8.31E-04,-2.88E-03,1.10E-02,0.00E+00,0.006146517
1392,1.16E-03,8.91E-04,-2.84E-03,1.13E-02,0.00E+00,0.006587878
1393,1.42E-03,8.27E-04,-2.85E-03,7.50E-03,0.00E+00,0.007029238
1394,1.43E-03,6.46E-04,-2.99E-03,1.30E-03,0.00E+00,0.007769296
1395,1.31E-03,3.94E-04,-3.10E-03,-2.77E-03,0.00E+00,0.009568369
1396,1.14E-03,1.66E-04,-3.19E-03,-4.49E-03,0.00E+00,0.008669278
1397,1.08E-03,1.57E-04,-2.84E-03,-4.20E-03,0.00E+00,0.00666812
1398,9.78E-04,2.10E-04,-3.04E-03,-2.75E-03,0.00E+00,0.005103942
1399,5.04E-04,3.37E-05,-3.36E-03,-1.88E-03,0.00E+00,0.005530455
1400,-1.77639E-06,-0.000181704,0,-0.000303501,0,0.00572517